# total density of states output by FHI-aims, for a spin polarized system
# The energy reference for this output is the average chemical potential, mu =       -5.454679 eV
#    Energy (eV)      DOS(spin up)   DOS(spin down)
    -14.54532112      0.34922575      0.00801649
    -14.54132072      0.54593539      0.02181976
    -14.53732032      0.72723655      0.05868113
    -14.53331992      0.82548499      0.13598031
    -14.52931952      0.79843909      0.26871101
    -14.52531912      0.65807399      0.45249799
    -14.52131872      0.46218936      0.64930449
    -14.51731832      0.27669121      0.79392458
    -14.51331792      0.14156721      0.82719729
    -14.50931752      0.06352524      0.73440932
    -14.50531712      0.03086620      0.55560827
    -14.50131672      0.03261733      0.35819847
    -14.49731632      0.06949941      0.19689883
    -14.49331592      0.15328784      0.09281332
    -14.48931552      0.29468451      0.03970767
    -14.48531512      0.48385621      0.02299730
    -14.48131472      0.67713745      0.03528106
    -14.47731432      0.80750782      0.08216917
    -14.47331392      0.82057199      0.17795426
    -14.46931352      0.71053546      0.33134217
    -14.46531312      0.52426863      0.52616061
    -14.46131272      0.32962602      0.71202455
    -14.45731232      0.17660196      0.82105842
    -14.45331192      0.08064515      0.80677511
    -14.44931152      0.03149787      0.67550717
    -14.44531112      0.01105895      0.48195505
    -14.44131072      0.00570856      0.29301075
    -14.43731032      0.01058785      0.15180289
    -14.43330992      0.03015832      0.06706060
    -14.42930952      0.07770823      0.02548546
    -14.42530912      0.17133445      0.00935732
    -14.42130872      0.32199157      0.00718537
    -14.41730832      0.51564597      0.01704027
    -14.41330792      0.70365261      0.04684929
    -14.40930752      0.81820853      0.11269253
    -14.40530711      0.81071591      0.23142134
    -14.40130671      0.68449830      0.40501215
    -14.39730631      0.49246463      0.60399829
    -14.39330591      0.30190945      0.76754285
    -14.38930551      0.15771659      0.83112925
    -14.38530511      0.07020658      0.76689073
    -14.38130471      0.02663135      0.60297236
    -14.37730431      0.00861461      0.40398041
    -14.37330391      0.00241132      0.23063340
    -14.36930351      0.00075240      0.11219749
    -14.36530311      0.00091673      0.04650977
    -14.36130271      0.00283911      0.01642971
    -14.35730231      0.00841660      0.00495198
    -14.35330191      0.02139065      0.00130830
    -14.34930151      0.04633815      0.00047044
    -14.34530111      0.08553793      0.00084688
    -14.34130071      0.13454826      0.00279685
    -14.33730031      0.18034184      0.00833376
    -14.33329991      0.20597473      0.02121646
    -14.32929951      0.20046123      0.04603164
    -14.32529911      0.16624396      0.08510234
    -14.32129871      0.11747905      0.13406816
    -14.31729831      0.07074153      0.17997362
    -14.31329791      0.03629910      0.20586905
    -14.30929751      0.01587674      0.20066532
    -14.30529711      0.00595160      0.16666814
    -14.30129671      0.00208998      0.11795923
    -14.29729631      0.00150714      0.07113955
    -14.29329591      0.00411681      0.03655974
    -14.28929551      0.01366474      0.01601854
    -14.28529511      0.03965049      0.00603303
    -14.28129471      0.09818489      0.00221423
    -14.27729431      0.20719454      0.00193688
    -14.27329391      0.37257816      0.00559363
    -14.26929351      0.57091651      0.01798143
    -14.26529311      0.74557949      0.05019754
    -14.26129271      0.83019335      0.11954705
    -14.25729231      0.78960034      0.24261926
    -14.25329191      0.64597569      0.41958167
    -14.24929151      0.46669962      0.61833434
    -14.24529111      0.32478008      0.77659907
    -14.24129071      0.26306552      0.83166089
    -14.23729031      0.28149289      0.76089729
    -14.23328991      0.34505814      0.59950022
    -14.22928951      0.40340048      0.41950132
    -14.22528911      0.41510749      0.28891013
    -14.22128871      0.36709224      0.24178795
    -14.21728831      0.27722471      0.27172341
    -14.21328791      0.17849540      0.34175984
    -14.20928751      0.09794488      0.40249882
    -14.20528711      0.04579846      0.41436641
    -14.20128671      0.01824832      0.36583074
    -14.19728631      0.00619577      0.27564946
    -14.19328591      0.00179253      0.17705163
    -14.18928551      0.00044191      0.09691310
    -14.18528511      0.00009283      0.04520370
    -14.18128471      0.00001662      0.01796665
    -14.17728431      0.00000253      0.00608499
    -14.17328391      0.00000033      0.00175611
    -14.16928351      0.00000004      0.00043186
    -14.16528311      0.00000000      0.00009050
    -14.16128271      0.00000000      0.00001616
    -14.15728231      0.00000000      0.00000246
    -14.15328191      0.00000000      0.00000032
    -14.14928151      0.00000000      0.00000004
    -14.14528111      0.00000000      0.00000000
    -14.14128071      0.00000000      0.00000000
    -14.13728031      0.00000000      0.00000000
    -14.13327991      0.00000000      0.00000000
    -14.12927951      0.00000000      0.00000000
    -14.12527911      0.00000000      0.00000000
    -14.12127871      0.00000000      0.00000000
    -14.11727831      0.00000000      0.00000000
    -14.11327791      0.00000000      0.00000000
    -14.10927751      0.00000000      0.00000000
    -14.10527711      0.00000000      0.00000000
    -14.10127671      0.00000000      0.00000000
    -14.09727631      0.00000000      0.00000000
    -14.09327591      0.00000000      0.00000000
    -14.08927551      0.00000000      0.00000000
    -14.08527511      0.00000000      0.00000000
    -14.08127471      0.00000000      0.00000000
    -14.07727431      0.00000000      0.00000000
    -14.07327391      0.00000000      0.00000000
    -14.06927351      0.00000000      0.00000000
    -14.06527311      0.00000000      0.00000000
    -14.06127271      0.00000000      0.00000000
    -14.05727231      0.00000000      0.00000000
    -14.05327191      0.00000000      0.00000000
    -14.04927151      0.00000000      0.00000000
    -14.04527111      0.00000000      0.00000000
    -14.04127071      0.00000000      0.00000000
    -14.03727031      0.00000000      0.00000000
    -14.03326991      0.00000000      0.00000000
    -14.02926951      0.00000000      0.00000000
    -14.02526911      0.00000000      0.00000000
    -14.02126871      0.00000000      0.00000000
    -14.01726831      0.00000000      0.00000000
    -14.01326791      0.00000000      0.00000000
    -14.00926751      0.00000000      0.00000000
    -14.00526711      0.00000000      0.00000000
    -14.00126671      0.00000000      0.00000000
    -13.99726631      0.00000000      0.00000000
    -13.99326591      0.00000000      0.00000000
    -13.98926551      0.00000000      0.00000000
    -13.98526511      0.00000000      0.00000000
    -13.98126471      0.00000000      0.00000000
    -13.97726431      0.00000000      0.00000000
    -13.97326391      0.00000000      0.00000000
    -13.96926351      0.00000001      0.00000000
    -13.96526311      0.00000007      0.00000000
    -13.96126271      0.00000064      0.00000000
    -13.95726231      0.00000470      0.00000000
    -13.95326191      0.00002928      0.00000000
    -13.94926151      0.00015549      0.00000001
    -13.94526111      0.00070366      0.00000009
    -13.94126071      0.00271457      0.00000077
    -13.93726031      0.00893063      0.00000558
    -13.93325991      0.02507267      0.00003430
    -13.92925951      0.06014665      0.00017956
    -13.92525911      0.12357748      0.00080143
    -13.92125871      0.21839619      0.00305061
    -13.91725831      0.33451050      0.00990927
    -13.91325791      0.44969954      0.02749808
    -13.90925751      0.54097413      0.06530979
    -13.90525711      0.59743470      0.13318093
    -13.90125671      0.62276564      0.23440379
    -13.89725631      0.62833644      0.35905106
    -13.89325591      0.62913436      0.48461968
    -13.88925551      0.64544680      0.58614189
    -13.88525511      0.69691137      0.64824924
    -13.88125471      0.78217690      0.67025511
    -13.87725431      0.86355986      0.66496983
    -13.87325391      0.88269395      0.65674218
    -13.86925351      0.80259362      0.67527663
    -13.86525311      0.63926308      0.73725368
    -13.86125271      0.45445922      0.82415249
    -13.85725231      0.32002652      0.88204123
    -13.85325191      0.28505841      0.85525894
    -13.84925151      0.36126766      0.72934294
    -13.84525111      0.52020479      0.54480648
    -13.84125071      0.69793165      0.37219544
    -13.83725031      0.81538871      0.27454426
    -13.83324991      0.81573283      0.28452439
    -13.82924951      0.69615417      0.39823993
    -13.82524911      0.50636940      0.57488372
    -13.82124871      0.31387151      0.74369073
    -13.81724831      0.16578321      0.82920102
    -13.81324791      0.07461555      0.78978217
    -13.80924751      0.02861656      0.64133900
    -13.80524711      0.00935200      0.44383082
    -13.80124671      0.00260430      0.26173220
    -13.79724631      0.00061798      0.13152194
    -13.79324591      0.00012496      0.05631691
    -13.78924551      0.00002153      0.02054842
    -13.78524511      0.00000316      0.00638877
    -13.78124471      0.00000040      0.00169260
    -13.77724431      0.00000004      0.00038211
    -13.77324391      0.00000000      0.00007351
    -13.76924351      0.00000000      0.00001205
    -13.76524311      0.00000000      0.00000168
    -13.76124271      0.00000000      0.00000020
    -13.75724231      0.00000000      0.00000002
    -13.75324191      0.00000000      0.00000000
    -13.74924151      0.00000000      0.00000000
    -13.74524111      0.00000000      0.00000000
    -13.74124071      0.00000000      0.00000000
    -13.73724031      0.00000000      0.00000000
    -13.73323991      0.00000000      0.00000000
    -13.72923951      0.00000000      0.00000000
    -13.72523911      0.00000000      0.00000000
    -13.72123871      0.00000000      0.00000000
    -13.71723831      0.00000000      0.00000000
    -13.71323791      0.00000000      0.00000000
    -13.70923751      0.00000000      0.00000000
    -13.70523711      0.00000000      0.00000000
    -13.70123671      0.00000000      0.00000000
    -13.69723631      0.00000000      0.00000000
    -13.69323591      0.00000000      0.00000000
    -13.68923551      0.00000000      0.00000000
    -13.68523511      0.00000000      0.00000000
    -13.68123471      0.00000000      0.00000000
    -13.67723431      0.00000000      0.00000000
    -13.67323391      0.00000000      0.00000000
    -13.66923351      0.00000000      0.00000000
    -13.66523311      0.00000000      0.00000000
    -13.66123271      0.00000000      0.00000000
    -13.65723231      0.00000000      0.00000000
    -13.65323191      0.00000000      0.00000000
    -13.64923151      0.00000000      0.00000000
    -13.64523111      0.00000000      0.00000000
    -13.64123071      0.00000000      0.00000000
    -13.63723031      0.00000000      0.00000000
    -13.63322991      0.00000000      0.00000000
    -13.62922951      0.00000000      0.00000000
    -13.62522911      0.00000000      0.00000000
    -13.62122871      0.00000000      0.00000000
    -13.61722831      0.00000000      0.00000000
    -13.61322791      0.00000000      0.00000000
    -13.60922751      0.00000000      0.00000000
    -13.60522711      0.00000000      0.00000000
    -13.60122671      0.00000000      0.00000000
    -13.59722631      0.00000000      0.00000000
    -13.59322591      0.00000000      0.00000000
    -13.58922551      0.00000000      0.00000000
    -13.58522511      0.00000000      0.00000000
    -13.58122471      0.00000000      0.00000000
    -13.57722431      0.00000000      0.00000000
    -13.57322391      0.00000000      0.00000000
    -13.56922351      0.00000000      0.00000000
    -13.56522311      0.00000000      0.00000000
    -13.56122271      0.00000000      0.00000000
    -13.55722231      0.00000000      0.00000000
    -13.55322191      0.00000000      0.00000000
    -13.54922151      0.00000000      0.00000000
    -13.54522111      0.00000000      0.00000000
    -13.54122071      0.00000000      0.00000000
    -13.53722031      0.00000000      0.00000000
    -13.53321991      0.00000000      0.00000000
    -13.52921951      0.00000000      0.00000000
    -13.52521911      0.00000000      0.00000000
    -13.52121871      0.00000000      0.00000000
    -13.51721831      0.00000000      0.00000000
    -13.51321791      0.00000000      0.00000000
    -13.50921751      0.00000000      0.00000000
    -13.50521711      0.00000000      0.00000000
    -13.50121671      0.00000000      0.00000000
    -13.49721631      0.00000000      0.00000000
    -13.49321591      0.00000000      0.00000000
    -13.48921551      0.00000000      0.00000000
    -13.48521511      0.00000000      0.00000000
    -13.48121471      0.00000000      0.00000000
    -13.47721431      0.00000000      0.00000000
    -13.47321391      0.00000000      0.00000000
    -13.46921351      0.00000000      0.00000000
    -13.46521311      0.00000000      0.00000000
    -13.46121271      0.00000000      0.00000000
    -13.45721231      0.00000000      0.00000000
    -13.45321191      0.00000000      0.00000000
    -13.44921151      0.00000000      0.00000000
    -13.44521111      0.00000000      0.00000000
    -13.44121071      0.00000002      0.00000000
    -13.43721031      0.00000015      0.00000000
    -13.43320991      0.00000125      0.00000000
    -13.42920951      0.00000869      0.00000000
    -13.42520911      0.00005136      0.00000000
    -13.42120871      0.00025877      0.00000003
    -13.41720831      0.00111095      0.00000024
    -13.41320791      0.00406422      0.00000192
    -13.40920751      0.01266951      0.00001287
    -13.40520710      0.03365433      0.00007354
    -13.40120670      0.07617652      0.00035806
    -13.39720630      0.14692660      0.00148556
    -13.39320590      0.24147867      0.00525199
    -13.38920550      0.33818639      0.01582179
    -13.38520510      0.40358269      0.04061500
    -13.38120470      0.41040058      0.08884157
    -13.37720430      0.35561694      0.16559417
    -13.37320390      0.26257655      0.26301039
    -13.36920350      0.16520703      0.35595886
    -13.36520310      0.08857285      0.41051190
    -13.36120270      0.04046507      0.40341378
    -13.35720230      0.01575818      0.33781175
    -13.35320190      0.00525982      0.24104490
    -13.34920150      0.00164622      0.14656217
    -13.34520110      0.00106211      0.07593952
    -13.34120070      0.00258521      0.03355197
    -13.33720030      0.00762622      0.01274984
    -13.33319990      0.01966305      0.00463123
    -13.32919950      0.04326508      0.00324216
    -13.32519910      0.08112610      0.00687682
    -13.32119870      0.12962386      0.01751806
    -13.31719830      0.17648534      0.03928191
    -13.31319790      0.20475355      0.07524551
    -13.30919750      0.20242000      0.12284268
    -13.30519710      0.17051969      0.17089259
    -13.30119670      0.12240377      0.20258010
    -13.29719630      0.07487110      0.20463010
    -13.29319590      0.03902409      0.17613328
    -13.28919550      0.01733207      0.12918511
    -13.28519510      0.00655945      0.08073887
    -13.28119470      0.00211536      0.04299837
    -13.27719430      0.00058130      0.01951284
    -13.27319390      0.00013619      0.00754550
    -13.26919350      0.00002782      0.00248631
    -13.26519310      0.00000973      0.00069811
    -13.26119270      0.00003421      0.00016703
    -13.25719230      0.00018778      0.00003407
    -13.25319190      0.00089609      0.00000611
    -13.24919150      0.00365048      0.00000251
    -13.24519110      0.01269826      0.00001205
    -13.24119070      0.03774983      0.00007431
    -13.23719030      0.09602831      0.00039473
    -13.23318990      0.20938145      0.00179036
    -13.22918950      0.39222232      0.00693408
    -13.22518910      0.63312825      0.02293743
    -13.22118870      0.88401386      0.06482098
    -13.21718830      1.07243682      0.15653582
    -13.21318790      1.13585637      0.32311346
    -13.20918750      1.05512840      0.57023962
    -13.20518710      0.86269364      0.86067300
    -13.20118670      0.62191040      1.11125044
    -13.19718630      0.39508999      1.22768634
    -13.19318590      0.22060791      1.16081891
    -13.18918550      0.10782391      0.93957404
    -13.18518510      0.04590937      0.65111849
    -13.18118470      0.01694851      0.38637324
    -13.17718430      0.00540245      0.19633962
    -13.17318390      0.00148179      0.08544323
    -13.16918350      0.00034878      0.03184268
    -13.16518310      0.00007031      0.01016192
    -13.16118270      0.00001213      0.00277669
    -13.15718230      0.00000188      0.00064953
    -13.15318190      0.00000104      0.00013005
    -13.14918150      0.00000621      0.00002229
    -13.14518110      0.00003987      0.00000331
    -13.14118070      0.00021915      0.00000079
    -13.13718030      0.00102639      0.00000312
    -13.13317990      0.00409620      0.00002103
    -13.12917950      0.01392995      0.00012227
    -13.12517910      0.04036614      0.00060594
    -13.12117870      0.09967445      0.00255884
    -13.11717830      0.20972470      0.00920783
    -13.11317790      0.37602300      0.02823385
    -13.10917750      0.57448455      0.07377037
    -13.10517710      0.74789630      0.16424528
    -13.10117670      0.82966642      0.31160393
    -13.09717630      0.78426845      0.50374651
    -13.09317590      0.63172064      0.69393736
    -13.08917550      0.43359522      0.81456844
    -13.08517510      0.25359635      0.81476804
    -13.08117470      0.12638648      0.69444761
    -13.07717430      0.05367318      0.50436401
    -13.07317390      0.01942286      0.31213882
    -13.06917350      0.00598919      0.16460786
    -13.06517310      0.00157370      0.07396946
    -13.06117270      0.00035235      0.02832393
    -13.05717230      0.00006722      0.00924174
    -13.05317190      0.00001093      0.00256952
    -13.04917150      0.00000151      0.00060877
    -13.04517110      0.00000018      0.00012290
    -13.04117070      0.00000002      0.00002114
    -13.03717030      0.00000000      0.00000310
    -13.03316990      0.00000000      0.00000039
    -13.02916950      0.00000000      0.00000004
    -13.02516910      0.00000000      0.00000000
    -13.02116870      0.00000000      0.00000000
    -13.01716830      0.00000000      0.00000000
    -13.01316790      0.00000000      0.00000000
    -13.00916750      0.00000000      0.00000000
    -13.00516710      0.00000000      0.00000000
    -13.00116670      0.00000000      0.00000000
    -12.99716630      0.00000000      0.00000000
    -12.99316590      0.00000000      0.00000000
    -12.98916550      0.00000000      0.00000000
    -12.98516510      0.00000000      0.00000000
    -12.98116470      0.00000000      0.00000000
    -12.97716430      0.00000000      0.00000000
    -12.97316390      0.00000000      0.00000000
    -12.96916350      0.00000000      0.00000000
    -12.96516310      0.00000005      0.00000000
    -12.96116270      0.00000046      0.00000000
    -12.95716230      0.00000344      0.00000000
    -12.95316190      0.00002211      0.00000003
    -12.94916150      0.00012147      0.00000024
    -12.94516110      0.00057069      0.00000189
    -12.94116070      0.00229621      0.00001274
    -12.93716030      0.00792993      0.00007334
