# total density of states output by FHI-aims, for a spin polarized system
# The energy reference for this output is the average chemical potential, mu =       -5.389839 eV
#    Energy (eV)      DOS(spin up)   DOS(spin down)
    -14.61016081      0.00000000      0.00000000
    -14.60616041      0.00000000      0.00000000
    -14.60216001      0.00000000      0.00000000
    -14.59815961      0.00000000      0.00000000
    -14.59415921      0.00000000      0.00000000
    -14.59015881      0.00000000      0.00000000
    -14.58615841      0.00000000      0.00000000
    -14.58215801      0.00000000      0.00000000
    -14.57815761      0.00000000      0.00000000
    -14.57415721      0.00000000      0.00000000
    -14.57015681      0.00000000      0.00000000
    -14.56615641      0.00000000      0.00000000
    -14.56215601      0.00000000      0.00000000
    -14.55815561      0.00000001      0.00000000
    -14.55415521      0.00000009      0.00000000
    -14.55015481      0.00000087      0.00000000
    -14.54615441      0.00000723      0.00000000
    -14.54215401      0.00005148      0.00000000
    -14.53815361      0.00031229      0.00000000
    -14.53415321      0.00161434      0.00000000
    -14.53015281      0.00711102      0.00000000
    -14.52615241      0.02669113      0.00000000
    -14.52215201      0.08536916      0.00000000
    -14.51815161      0.23266659      0.00000000
    -14.51415121      0.54033871      0.00000000
    -14.51015081      1.06929409      0.00000000
    -14.50615041      1.80313101      0.00000000
    -14.50215001      2.59093445      0.00000000
    -14.49814961      3.17237558      0.00000000
    -14.49414921      3.30987658      0.00000000
    -14.49014881      2.94264608      0.00000000
    -14.48614841      2.22927318      0.00000000
    -14.48214800      1.43908876      0.00000000
    -14.47814760      0.79160932      0.00000000
    -14.47414720      0.37105069      0.00000000
    -14.47014680      0.14820219      0.00000000
    -14.46614640      0.05043999      0.00000000
    -14.46214600      0.01462832      0.00000000
    -14.45814560      0.00361504      0.00000000
    -14.45414520      0.00076126      0.00000000
    -14.45014480      0.00013660      0.00000000
    -14.44614440      0.00002089      0.00000000
    -14.44214400      0.00000272      0.00000000
    -14.43814360      0.00000030      0.00000000
    -14.43414320      0.00000003      0.00000000
    -14.43014280      0.00000000      0.00000000
    -14.42614240      0.00000000      0.00000000
    -14.42214200      0.00000000      0.00000000
    -14.41814160      0.00000000      0.00000000
    -14.41414120      0.00000000      0.00000000
    -14.41014080      0.00000000      0.00000000
    -14.40614040      0.00000000      0.00000000
    -14.40214000      0.00000000      0.00000000
    -14.39813960      0.00000000      0.00000000
    -14.39413920      0.00000000      0.00000000
    -14.39013880      0.00000000      0.00000000
    -14.38613840      0.00000000      0.00000000
    -14.38213800      0.00000000      0.00000000
    -14.37813760      0.00000000      0.00000000
    -14.37413720      0.00000000      0.00000000
    -14.37013680      0.00000000      0.00000000
    -14.36613640      0.00000000      0.00000000
    -14.36213600      0.00000000      0.00000000
    -14.35813560      0.00000000      0.00000000
    -14.35413520      0.00000000      0.00000000
    -14.35013480      0.00000000      0.00000000
    -14.34613440      0.00000000      0.00000000
    -14.34213400      0.00000000      0.00000000
    -14.33813360      0.00000000      0.00000000
    -14.33413320      0.00000000      0.00000000
    -14.33013280      0.00000000      0.00000000
    -14.32613240      0.00000000      0.00000000
    -14.32213200      0.00000000      0.00000000
    -14.31813160      0.00000000      0.00000000
    -14.31413120      0.00000000      0.00000000
    -14.31013080      0.00000000      0.00000000
    -14.30613040      0.00000000      0.00000000
    -14.30213000      0.00000000      0.00000000
    -14.29812960      0.00000000      0.00000000
    -14.29412920      0.00000000      0.00000000
    -14.29012880      0.00000000      0.00000000
    -14.28612840      0.00000000      0.00000000
    -14.28212800      0.00000000      0.00000000
    -14.27812760      0.00000000      0.00000000
    -14.27412720      0.00000000      0.00000000
    -14.27012680      0.00000000      0.00000000
    -14.26612640      0.00000000      0.00000000
    -14.26212600      0.00000000      0.00000000
    -14.25812560      0.00000000      0.00000000
    -14.25412520      0.00000000      0.00000000
    -14.25012480      0.00000000      0.00000000
    -14.24612440      0.00000000      0.00000000
    -14.24212400      0.00000000      0.00000000
    -14.23812360      0.00000000      0.00000000
    -14.23412320      0.00000000      0.00000001
    -14.23012280      0.00000000      0.00000016
    -14.22612240      0.00000000      0.00000155
    -14.22212200      0.00000000      0.00001241
    -14.21812160      0.00000000      0.00008463
    -14.21412120      0.00000000      0.00049195
    -14.21012080      0.00000000      0.00243665
    -14.20612040      0.00000000      0.01028408
    -14.20212000      0.00000000      0.03698596
    -14.19811960      0.00000000      0.11334629
    -14.19411920      0.00000000      0.29598978
    -14.19011880      0.00000000      0.65863554
    -14.18611840      0.00000000      1.24885674
    -14.18211800      0.00000000      2.01780460
    -14.17811760      0.00000000      2.77807918
    -14.17411720      0.00000000      3.25918607
    -14.17011680      0.00000000      3.25816231
    -14.16611640      0.00000000      2.77546209
    -14.16211600      0.00000000      2.01463748
    -14.15811560      0.00000000      1.24611333
    -14.15411520      0.00000000      0.65677589
    -14.15011480      0.00000000      0.29496867
    -14.14611440      0.00000000      0.11288431
    -14.14211400      0.00000000      0.03681208
    -14.13811360      0.00000000      0.01022930
    -14.13411320      0.00000000      0.00242215
    -14.13011280      0.00000000      0.00048871
    -14.12611240      0.00000000      0.00008402
    -14.12211200      0.00000000      0.00001231
    -14.11811160      0.00000000      0.00000154
    -14.11411120      0.00000000      0.00000016
    -14.11011080      0.00000000      0.00000001
    -14.10611040      0.00000000      0.00000000
    -14.10211000      0.00000000      0.00000000
    -14.09810960      0.00000000      0.00000000
    -14.09410920      0.00000000      0.00000000
    -14.09010880      0.00000000      0.00000000
    -14.08610840      0.00000000      0.00000000
    -14.08210800      0.00000000      0.00000000
    -14.07810760      0.00000000      0.00000000
    -14.07410720      0.00000000      0.00000000
    -14.07010680      0.00000000      0.00000000
    -14.06610640      0.00000000      0.00000000
    -14.06210600      0.00000000      0.00000000
    -14.05810560      0.00000000      0.00000000
    -14.05410520      0.00000000      0.00000000
    -14.05010480      0.00000000      0.00000000
    -14.04610440      0.00000000      0.00000000
    -14.04210400      0.00000000      0.00000000
    -14.03810360      0.00000000      0.00000000
    -14.03410320      0.00000000      0.00000000
    -14.03010280      0.00000000      0.00000000
    -14.02610240      0.00000000      0.00000000
    -14.02210200      0.00000000      0.00000000
    -14.01810160      0.00000000      0.00000000
    -14.01410120      0.00000000      0.00000000
    -14.01010080      0.00000000      0.00000000
    -14.00610040      0.00000000      0.00000000
    -14.00210000      0.00000000      0.00000000
    -13.99809960      0.00000000      0.00000000
    -13.99409920      0.00000000      0.00000000
    -13.99009880      0.00000000      0.00000000
    -13.98609840      0.00000000      0.00000000
    -13.98209800      0.00000000      0.00000000
    -13.97809760      0.00000000      0.00000000
    -13.97409720      0.00000000      0.00000000
    -13.97009680      0.00000000      0.00000000
    -13.96609640      0.00000000      0.00000000
    -13.96209600      0.00000000      0.00000000
    -13.95809560      0.00000000      0.00000000
    -13.95409520      0.00000000      0.00000000
    -13.95009480      0.00000000      0.00000000
    -13.94609440      0.00000000      0.00000000
    -13.94209400      0.00000000      0.00000000
    -13.93809360      0.00000000      0.00000000
    -13.93409320      0.00000000      0.00000000
    -13.93009280      0.00000000      0.00000000
    -13.92609240      0.00000000      0.00000000
    -13.92209200      0.00000000      0.00000000
    -13.91809160      0.00000000      0.00000000
    -13.91409120      0.00000000      0.00000000
    -13.91009080      0.00000000      0.00000000
    -13.90609040      0.00000000      0.00000000
    -13.90209000      0.00000000      0.00000000
    -13.89808960      0.00000000      0.00000000
    -13.89408920      0.00000000      0.00000000
    -13.89008880      0.00000000      0.00000000
    -13.88608840      0.00000000      0.00000000
    -13.88208800      0.00000000      0.00000000
    -13.87808760      0.00000000      0.00000000
    -13.87408720      0.00000000      0.00000000
    -13.87008680      0.00000000      0.00000000
    -13.86608640      0.00000000      0.00000000
    -13.86208600      0.00000000      0.00000000
    -13.85808560      0.00000000      0.00000000
    -13.85408520      0.00000000      0.00000000
    -13.85008480      0.00000000      0.00000000
    -13.84608440      0.00000000      0.00000000
    -13.84208400      0.00000000      0.00000000
    -13.83808360      0.00000000      0.00000000
    -13.83408320      0.00000000      0.00000000
    -13.83008280      0.00000000      0.00000000
    -13.82608240      0.00000000      0.00000000
    -13.82208200      0.00000000      0.00000000
    -13.81808160      0.00000000      0.00000000
    -13.81408120      0.00000000      0.00000000
    -13.81008080      0.00000000      0.00000000
    -13.80608040      0.00000000      0.00000000
    -13.80208000      0.00000000      0.00000000
    -13.79807960      0.00000000      0.00000000
    -13.79407920      0.00000000      0.00000000
    -13.79007880      0.00000000      0.00000000
    -13.78607840      0.00000000      0.00000000
    -13.78207800      0.00000000      0.00000000
    -13.77807760      0.00000000      0.00000000
    -13.77407720      0.00000000      0.00000000
    -13.77007680      0.00000000      0.00000000
    -13.76607640      0.00000000      0.00000000
    -13.76207600      0.00000000      0.00000000
    -13.75807560      0.00000000      0.00000000
    -13.75407520      0.00000000      0.00000000
    -13.75007480      0.00000000      0.00000000
    -13.74607440      0.00000000      0.00000000
    -13.74207400      0.00000000      0.00000000
    -13.73807360      0.00000000      0.00000000
    -13.73407320      0.00000000      0.00000000
    -13.73007280      0.00000000      0.00000000
    -13.72607240      0.00000000      0.00000000
    -13.72207200      0.00000000      0.00000000
    -13.71807160      0.00000000      0.00000000
    -13.71407120      0.00000000      0.00000000
    -13.71007080      0.00000000      0.00000000
    -13.70607040      0.00000000      0.00000000
    -13.70207000      0.00000000      0.00000000
    -13.69806960      0.00000000      0.00000000
    -13.69406920      0.00000000      0.00000000
    -13.69006880      0.00000000      0.00000000
    -13.68606840      0.00000000      0.00000000
    -13.68206800      0.00000000      0.00000000
    -13.67806760      0.00000000      0.00000000
    -13.67406720      0.00000000      0.00000000
    -13.67006680      0.00000000      0.00000000
    -13.66606640      0.00000000      0.00000000
    -13.66206600      0.00000000      0.00000000
    -13.65806560      0.00000000      0.00000000
    -13.65406520      0.00000000      0.00000000
    -13.65006480      0.00000000      0.00000000
    -13.64606440      0.00000000      0.00000000
    -13.64206400      0.00000000      0.00000000
    -13.63806360      0.00000000      0.00000000
    -13.63406320      0.00000000      0.00000000
    -13.63006280      0.00000000      0.00000000
    -13.62606240      0.00000000      0.00000000
    -13.62206200      0.00000000      0.00000000
    -13.61806160      0.00000000      0.00000000
    -13.61406120      0.00000000      0.00000000
    -13.61006080      0.00000000      0.00000000
    -13.60606040      0.00000000      0.00000000
    -13.60206000      0.00000000      0.00000000
    -13.59805960      0.00000000      0.00000000
    -13.59405920      0.00000000      0.00000000
    -13.59005880      0.00000000      0.00000000
    -13.58605840      0.00000000      0.00000000
    -13.58205800      0.00000000      0.00000000
    -13.57805760      0.00000000      0.00000000
    -13.57405720      0.00000000      0.00000000
    -13.57005680      0.00000000      0.00000000
    -13.56605640      0.00000000      0.00000000
    -13.56205600      0.00000000      0.00000000
    -13.55805560      0.00000000      0.00000000
    -13.55405520      0.00000000      0.00000000
    -13.55005480      0.00000000      0.00000000
    -13.54605440      0.00000000      0.00000000
    -13.54205400      0.00000000      0.00000000
    -13.53805360      0.00000000      0.00000000
    -13.53405320      0.00000000      0.00000000
    -13.53005280      0.00000000      0.00000000
    -13.52605240      0.00000000      0.00000000
    -13.52205200      0.00000000      0.00000000
    -13.51805160      0.00000000      0.00000000
    -13.51405120      0.00000000      0.00000000
    -13.51005080      0.00000000      0.00000000
    -13.50605040      0.00000000      0.00000000
    -13.50205000      0.00000000      0.00000000
    -13.49804960      0.00000000      0.00000000
    -13.49404920      0.00000000      0.00000000
    -13.49004880      0.00000000      0.00000000
    -13.48604840      0.00000001      0.00000000
    -13.48204799      0.00000009      0.00000000
    -13.47804759      0.00000087      0.00000000
    -13.47404719      0.00000728      0.00000000
    -13.47004679      0.00005183      0.00000000
    -13.46604639      0.00031423      0.00000000
    -13.46204599      0.00162344      0.00000000
    -13.45804559      0.00714695      0.00000000
    -13.45404519      0.02681052      0.00000000
    -13.45004479      0.08570164      0.00000000
    -13.44604439      0.23343830      0.00000000
    -13.44204399      0.54181905      0.00000000
    -13.43804359      1.07160710      0.00000000
    -13.43404319      1.80599297      0.00000000
    -13.43004279      2.59355634      0.00000000
    -13.42604239      3.17376287      0.00000000
    -13.42204199      3.30942407      0.00000000
    -13.41804159      2.94055648      0.00000000
    -13.41404119      2.22641330      0.00000000
    -13.41004079      1.43641922      0.00000000
    -13.40604039      0.78968845      0.00000000
    -13.40203999      0.36993849      0.00000000
    -13.39803959      0.14767345      0.00000000
    -13.39403919      0.05023131      0.00000000
    -13.39003879      0.01455947      0.00000000
    -13.38603839      0.00359597      0.00000000
    -13.38203799      0.00075681      0.00000000
    -13.37803759      0.00013572      0.00000000
    -13.37403719      0.00002074      0.00000000
    -13.37003679      0.00000270      0.00000000
    -13.36603639      0.00000030      0.00000000
    -13.36203599      0.00000003      0.00000000
    -13.35803559      0.00000000      0.00000000
    -13.35403519      0.00000000      0.00000000
    -13.35003479      0.00000000      0.00000000
    -13.34603439      0.00000000      0.00000000
    -13.34203399      0.00000000      0.00000000
    -13.33803359      0.00000000      0.00000000
    -13.33403319      0.00000000      0.00000000
    -13.33003279      0.00000000      0.00000000
    -13.32603239      0.00000000      0.00000000
    -13.32203199      0.00000000      0.00000000
    -13.31803159      0.00000000      0.00000000
    -13.31403119      0.00000000      0.00000000
    -13.31003079      0.00000000      0.00000000
    -13.30603039      0.00000000      0.00000000
    -13.30202999      0.00000000      0.00000000
    -13.29802959      0.00000000      0.00000000
    -13.29402919      0.00000000      0.00000000
    -13.29002879      0.00000000      0.00000000
    -13.28602839      0.00000000      0.00000000
    -13.28202799      0.00000000      0.00000004
    -13.27802759      0.00000000      0.00000037
    -13.27402719      0.00000000      0.00000329
    -13.27002679      0.00000000      0.00002489
    -13.26602639      0.00000000      0.00016048
    -13.26202599      0.00000000      0.00088155
    -13.25802559      0.00000000      0.00412643
    -13.25402519      0.00000000      0.01645899
    -13.25002479      0.00000000      0.05594105
    -13.24602439      0.00000000      0.16201573
    -13.24202399      0.00000000      0.39983692
    -13.23802359      0.00000000      0.84082911
    -13.23402319      0.00000000      1.50671718
    -13.23002279      0.00000000      2.30067295
    -13.22602239      0.00000000      2.99348567
    -13.22202199      0.00000000      3.31893411
    -13.21802159      0.00000000      3.13558968
    -13.21402119      0.00000000      2.52428840
    -13.21002079      0.00000000      1.73164103
    -13.20602039      0.00000000      1.01222232
    -13.20201999      0.00000000      0.50418870
    -13.19801959      0.00000000      0.21399787
    -13.19401919      0.00000000      0.07739714
    -13.19001879      0.00000000      0.02385281
    -13.18601839      0.00000000      0.00626402
    -13.18201799      0.00000000      0.00140174
    -13.17801759      0.00000000      0.00026729
    -13.17401719      0.00000000      0.00004343
    -13.17001679      0.00000000      0.00000601
    -13.16601639      0.00000000      0.00000071
    -13.16201599      0.00000000      0.00000007
    -13.15801559      0.00000000      0.00000001
    -13.15401519      0.00000000      0.00000000
    -13.15001479      0.00000000      0.00000000
    -13.14601439      0.00000000      0.00000000
    -13.14201399      0.00000000      0.00000000
    -13.13801359      0.00000000      0.00000000
    -13.13401319      0.00000000      0.00000000
    -13.13001279      0.00000000      0.00000000
    -13.12601239      0.00000000      0.00000000
    -13.12201199      0.00000000      0.00000000
    -13.11801159      0.00000000      0.00000000
    -13.11401119      0.00000000      0.00000000
    -13.11001079      0.00000000      0.00000000
    -13.10601039      0.00000000      0.00000000
    -13.10200999      0.00000000      0.00000000
    -13.09800959      0.00000000      0.00000000
    -13.09400919      0.00000000      0.00000000
    -13.09000879      0.00000000      0.00000000
    -13.08600839      0.00000000      0.00000000
    -13.08200799      0.00000000      0.00000000
    -13.07800759      0.00000000      0.00000000
    -13.07400719      0.00000000      0.00000000
    -13.07000679      0.00000000      0.00000000
    -13.06600639      0.00000000      0.00000000
    -13.06200599      0.00000000      0.00000000
    -13.05800559      0.00000000      0.00000000
    -13.05400519      0.00000000      0.00000000
    -13.05000479      0.00000000      0.00000000
    -13.04600439      0.00000000      0.00000000
    -13.04200399      0.00000000      0.00000000
    -13.03800359      0.00000000      0.00000000
    -13.03400319      0.00000000      0.00000000
    -13.03000279      0.00000000      0.00000000
    -13.02600239      0.00000000      0.00000000
    -13.02200199      0.00000000      0.00000000
    -13.01800159      0.00000000      0.00000000
    -13.01400119      0.00000000      0.00000000
    -13.01000079      0.00000000      0.00000000
    -13.00600039      0.00000000      0.00000000
    -13.00199999      0.00000000      0.00000000
