# total density of states output by FHI-aims, for a spin polarized system
# The energy reference for this output is the vacuum level
#    Energy (eV)      DOS(spin up)   DOS(spin down)
    -20.00000000      0.34922575      0.00801649
    -19.99599960      0.54593539      0.02181976
    -19.99199920      0.72723655      0.05868113
    -19.98799880      0.82548499      0.13598031
    -19.98399840      0.79843909      0.26871101
    -19.97999800      0.65807399      0.45249799
    -19.97599760      0.46218936      0.64930449
    -19.97199720      0.27669121      0.79392458
    -19.96799680      0.14156721      0.82719729
    -19.96399640      0.06352524      0.73440932
    -19.95999600      0.03086620      0.55560827
    -19.95599560      0.03261733      0.35819847
    -19.95199520      0.06949941      0.19689883
    -19.94799480      0.15328784      0.09281332
    -19.94399440      0.29468451      0.03970767
    -19.93999400      0.48385621      0.02299730
    -19.93599360      0.67713745      0.03528106
    -19.93199320      0.80750782      0.08216917
    -19.92799280      0.82057199      0.17795426
    -19.92399240      0.71053546      0.33134217
    -19.91999200      0.52426863      0.52616061
    -19.91599160      0.32962602      0.71202455
    -19.91199120      0.17660196      0.82105842
    -19.90799080      0.08064515      0.80677511
    -19.90399040      0.03149787      0.67550717
    -19.89999000      0.01105895      0.48195505
    -19.89598960      0.00570856      0.29301075
    -19.89198920      0.01058785      0.15180289
    -19.88798880      0.03015832      0.06706060
    -19.88398840      0.07770823      0.02548546
    -19.87998800      0.17133445      0.00935732
    -19.87598760      0.32199157      0.00718537
    -19.87198720      0.51564597      0.01704027
    -19.86798680      0.70365261      0.04684929
    -19.86398640      0.81820853      0.11269253
    -19.85998600      0.81071591      0.23142134
    -19.85598560      0.68449830      0.40501215
    -19.85198520      0.49246463      0.60399829
    -19.84798480      0.30190945      0.76754285
    -19.84398440      0.15771659      0.83112925
    -19.83998400      0.07020658      0.76689073
    -19.83598360      0.02663135      0.60297236
    -19.83198320      0.00861461      0.40398041
    -19.82798280      0.00241132      0.23063340
    -19.82398240      0.00075240      0.11219749
    -19.81998200      0.00091673      0.04650977
    -19.81598160      0.00283911      0.01642971
    -19.81198120      0.00841660      0.00495198
    -19.80798080      0.02139065      0.00130830
    -19.80398040      0.04633815      0.00047044
    -19.79998000      0.08553793      0.00084688
    -19.79597960      0.13454826      0.00279685
    -19.79197920      0.18034184      0.00833376
    -19.78797880      0.20597473      0.02121646
    -19.78397840      0.20046123      0.04603164
    -19.77997800      0.16624396      0.08510234
    -19.77597760      0.11747905      0.13406816
    -19.77197720      0.07074153      0.17997362
    -19.76797680      0.03629910      0.20586905
    -19.76397640      0.01587674      0.20066532
    -19.75997600      0.00595160      0.16666814
    -19.75597560      0.00208998      0.11795923
    -19.75197520      0.00150714      0.07113955
    -19.74797480      0.00411681      0.03655974
    -19.74397440      0.01366474      0.01601854
    -19.73997400      0.03965049      0.00603303
    -19.73597360      0.09818489      0.00221423
    -19.73197320      0.20719454      0.00193688
    -19.72797280      0.37257816      0.00559363
    -19.72397240      0.57091651      0.01798143
    -19.71997200      0.74557949      0.05019754
    -19.71597160      0.83019335      0.11954705
    -19.71197120      0.78960034      0.24261926
    -19.70797080      0.64597569      0.41958167
    -19.70397040      0.46669962      0.61833434
    -19.69997000      0.32478008      0.77659907
    -19.69596960      0.26306552      0.83166089
    -19.69196920      0.28149289      0.76089729
    -19.68796880      0.34505814      0.59950022
    -19.68396840      0.40340048      0.41950132
    -19.67996800      0.41510749      0.28891013
    -19.67596760      0.36709224      0.24178795
    -19.67196720      0.27722471      0.27172341
    -19.66796680      0.17849540      0.34175984
    -19.66396640      0.09794488      0.40249882
    -19.65996600      0.04579846      0.41436641
    -19.65596560      0.01824832      0.36583074
    -19.65196520      0.00619577      0.27564946
    -19.64796480      0.00179253      0.17705163
    -19.64396440      0.00044191      0.09691310
    -19.63996400      0.00009283      0.04520370
    -19.63596360      0.00001662      0.01796665
    -19.63196320      0.00000253      0.00608499
    -19.62796280      0.00000033      0.00175611
    -19.62396240      0.00000004      0.00043186
    -19.61996200      0.00000000      0.00009050
    -19.61596160      0.00000000      0.00001616
    -19.61196120      0.00000000      0.00000246
    -19.60796080      0.00000000      0.00000032
    -19.60396040      0.00000000      0.00000004
    -19.59996000      0.00000000      0.00000000
    -19.59595960      0.00000000      0.00000000
    -19.59195920      0.00000000      0.00000000
    -19.58795880      0.00000000      0.00000000
    -19.58395840      0.00000000      0.00000000
    -19.57995800      0.00000000      0.00000000
    -19.57595760      0.00000000      0.00000000
    -19.57195720      0.00000000      0.00000000
    -19.56795680      0.00000000      0.00000000
    -19.56395640      0.00000000      0.00000000
    -19.55995600      0.00000000      0.00000000
    -19.55595560      0.00000000      0.00000000
    -19.55195520      0.00000000      0.00000000
    -19.54795480      0.00000000      0.00000000
    -19.54395440      0.00000000      0.00000000
    -19.53995400      0.00000000      0.00000000
    -19.53595360      0.00000000      0.00000000
    -19.53195320      0.00000000      0.00000000
    -19.52795280      0.00000000      0.00000000
    -19.52395240      0.00000000      0.00000000
    -19.51995200      0.00000000      0.00000000
    -19.51595160      0.00000000      0.00000000
    -19.51195120      0.00000000      0.00000000
    -19.50795080      0.00000000      0.00000000
    -19.50395040      0.00000000      0.00000000
    -19.49994999      0.00000000      0.00000000
    -19.49594959      0.00000000      0.00000000
    -19.49194919      0.00000000      0.00000000
    -19.48794879      0.00000000      0.00000000
    -19.48394839      0.00000000      0.00000000
    -19.47994799      0.00000000      0.00000000
    -19.47594759      0.00000000      0.00000000
    -19.47194719      0.00000000      0.00000000
    -19.46794679      0.00000000      0.00000000
    -19.46394639      0.00000000      0.00000000
    -19.45994599      0.00000000      0.00000000
    -19.45594559      0.00000000      0.00000000
    -19.45194519      0.00000000      0.00000000
    -19.44794479      0.00000000      0.00000000
    -19.44394439      0.00000000      0.00000000
    -19.43994399      0.00000000      0.00000000
    -19.43594359      0.00000000      0.00000000
    -19.43194319      0.00000000      0.00000000
    -19.42794279      0.00000000      0.00000000
    -19.42394239      0.00000001      0.00000000
    -19.41994199      0.00000007      0.00000000
    -19.41594159      0.00000064      0.00000000
    -19.41194119      0.00000470      0.00000000
    -19.40794079      0.00002928      0.00000000
    -19.40394039      0.00015549      0.00000001
    -19.39993999      0.00070366      0.00000009
    -19.39593959      0.00271457      0.00000077
    -19.39193919      0.00893063      0.00000558
    -19.38793879      0.02507267      0.00003430
    -19.38393839      0.06014665      0.00017956
    -19.37993799      0.12357748      0.00080143
    -19.37593759      0.21839619      0.00305061
    -19.37193719      0.33451050      0.00990927
    -19.36793679      0.44969954      0.02749808
    -19.36393639      0.54097413      0.06530979
    -19.35993599      0.59743470      0.13318093
    -19.35593559      0.62276564      0.23440379
    -19.35193519      0.62833644      0.35905106
    -19.34793479      0.62913436      0.48461968
    -19.34393439      0.64544680      0.58614189
    -19.33993399      0.69691137      0.64824924
    -19.33593359      0.78217690      0.67025511
    -19.33193319      0.86355986      0.66496983
    -19.32793279      0.88269395      0.65674218
    -19.32393239      0.80259362      0.67527663
    -19.31993199      0.63926308      0.73725368
    -19.31593159      0.45445922      0.82415249
    -19.31193119      0.32002652      0.88204123
    -19.30793079      0.28505841      0.85525894
    -19.30393039      0.36126766      0.72934294
    -19.29992999      0.52020479      0.54480648
    -19.29592959      0.69793165      0.37219544
    -19.29192919      0.81538871      0.27454426
    -19.28792879      0.81573283      0.28452439
    -19.28392839      0.69615417      0.39823993
    -19.27992799      0.50636940      0.57488372
    -19.27592759      0.31387151      0.74369073
    -19.27192719      0.16578321      0.82920102
    -19.26792679      0.07461555      0.78978217
    -19.26392639      0.02861656      0.64133900
    -19.25992599      0.00935200      0.44383082
    -19.25592559      0.00260430      0.26173220
    -19.25192519      0.00061798      0.13152194
    -19.24792479      0.00012496      0.05631691
    -19.24392439      0.00002153      0.02054842
    -19.23992399      0.00000316      0.00638877
    -19.23592359      0.00000040      0.00169260
    -19.23192319      0.00000004      0.00038211
    -19.22792279      0.00000000      0.00007351
    -19.22392239      0.00000000      0.00001205
    -19.21992199      0.00000000      0.00000168
    -19.21592159      0.00000000      0.00000020
    -19.21192119      0.00000000      0.00000002
    -19.20792079      0.00000000      0.00000000
    -19.20392039      0.00000000      0.00000000
    -19.19991999      0.00000000      0.00000000
    -19.19591959      0.00000000      0.00000000
    -19.19191919      0.00000000      0.00000000
    -19.18791879      0.00000000      0.00000000
    -19.18391839      0.00000000      0.00000000
    -19.17991799      0.00000000      0.00000000
    -19.17591759      0.00000000      0.00000000
    -19.17191719      0.00000000      0.00000000
    -19.16791679      0.00000000      0.00000000
    -19.16391639      0.00000000      0.00000000
    -19.15991599      0.00000000      0.00000000
    -19.15591559      0.00000000      0.00000000
    -19.15191519      0.00000000      0.00000000
    -19.14791479      0.00000000      0.00000000
    -19.14391439      0.00000000      0.00000000
    -19.13991399      0.00000000      0.00000000
    -19.13591359      0.00000000      0.00000000
    -19.13191319      0.00000000      0.00000000
    -19.12791279      0.00000000      0.00000000
    -19.12391239      0.00000000      0.00000000
    -19.11991199      0.00000000      0.00000000
    -19.11591159      0.00000000      0.00000000
    -19.11191119      0.00000000      0.00000000
    -19.10791079      0.00000000      0.00000000
    -19.10391039      0.00000000      0.00000000
    -19.09990999      0.00000000      0.00000000
    -19.09590959      0.00000000      0.00000000
    -19.09190919      0.00000000      0.00000000
    -19.08790879      0.00000000      0.00000000
    -19.08390839      0.00000000      0.00000000
    -19.07990799      0.00000000      0.00000000
    -19.07590759      0.00000000      0.00000000
    -19.07190719      0.00000000      0.00000000
    -19.06790679      0.00000000      0.00000000
    -19.06390639      0.00000000      0.00000000
    -19.05990599      0.00000000      0.00000000
    -19.05590559      0.00000000      0.00000000
    -19.05190519      0.00000000      0.00000000
    -19.04790479      0.00000000      0.00000000
    -19.04390439      0.00000000      0.00000000
    -19.03990399      0.00000000      0.00000000
    -19.03590359      0.00000000      0.00000000
    -19.03190319      0.00000000      0.00000000
    -19.02790279      0.00000000      0.00000000
    -19.02390239      0.00000000      0.00000000
    -19.01990199      0.00000000      0.00000000
    -19.01590159      0.00000000      0.00000000
    -19.01190119      0.00000000      0.00000000
    -19.00790079      0.00000000      0.00000000
    -19.00390039      0.00000000      0.00000000
    -18.99989999      0.00000000      0.00000000
    -18.99589959      0.00000000      0.00000000
    -18.99189919      0.00000000      0.00000000
    -18.98789879      0.00000000      0.00000000
    -18.98389839      0.00000000      0.00000000
    -18.97989799      0.00000000      0.00000000
    -18.97589759      0.00000000      0.00000000
    -18.97189719      0.00000000      0.00000000
    -18.96789679      0.00000000      0.00000000
    -18.96389639      0.00000000      0.00000000
    -18.95989599      0.00000000      0.00000000
    -18.95589559      0.00000000      0.00000000
    -18.95189519      0.00000000      0.00000000
    -18.94789479      0.00000000      0.00000000
    -18.94389439      0.00000000      0.00000000
    -18.93989399      0.00000000      0.00000000
    -18.93589359      0.00000000      0.00000000
    -18.93189319      0.00000000      0.00000000
    -18.92789279      0.00000000      0.00000000
    -18.92389239      0.00000000      0.00000000
    -18.91989199      0.00000000      0.00000000
    -18.91589159      0.00000000      0.00000000
    -18.91189119      0.00000000      0.00000000
    -18.90789079      0.00000000      0.00000000
    -18.90389039      0.00000000      0.00000000
    -18.89988999      0.00000000      0.00000000
    -18.89588959      0.00000002      0.00000000
    -18.89188919      0.00000015      0.00000000
    -18.88788879      0.00000125      0.00000000
    -18.88388839      0.00000869      0.00000000
    -18.87988799      0.00005136      0.00000000
    -18.87588759      0.00025877      0.00000003
    -18.87188719      0.00111095      0.00000024
    -18.86788679      0.00406422      0.00000192
    -18.86388639      0.01266951      0.00001287
    -18.85988599      0.03365433      0.00007354
    -18.85588559      0.07617652      0.00035806
    -18.85188519      0.14692660      0.00148556
    -18.84788479      0.24147867      0.00525199
    -18.84388439      0.33818639      0.01582179
    -18.83988399      0.40358269      0.04061500
    -18.83588359      0.41040058      0.08884157
    -18.83188319      0.35561694      0.16559417
    -18.82788279      0.26257655      0.26301039
    -18.82388239      0.16520703      0.35595886
    -18.81988199      0.08857285      0.41051190
    -18.81588159      0.04046507      0.40341378
    -18.81188119      0.01575818      0.33781175
    -18.80788079      0.00525982      0.24104490
    -18.80388039      0.00164622      0.14656217
    -18.79987999      0.00106211      0.07593952
    -18.79587959      0.00258521      0.03355197
    -18.79187919      0.00762622      0.01274984
    -18.78787879      0.01966305      0.00463123
    -18.78387839      0.04326508      0.00324216
    -18.77987799      0.08112610      0.00687682
    -18.77587759      0.12962386      0.01751806
    -18.77187719      0.17648534      0.03928191
    -18.76787679      0.20475355      0.07524551
    -18.76387639      0.20242000      0.12284268
    -18.75987599      0.17051969      0.17089259
    -18.75587559      0.12240377      0.20258010
    -18.75187519      0.07487110      0.20463010
    -18.74787479      0.03902409      0.17613328
    -18.74387439      0.01733207      0.12918511
    -18.73987399      0.00655945      0.08073887
    -18.73587359      0.00211536      0.04299837
    -18.73187319      0.00058130      0.01951284
    -18.72787279      0.00013619      0.00754550
    -18.72387239      0.00002782      0.00248631
    -18.71987199      0.00000973      0.00069811
    -18.71587159      0.00003421      0.00016703
    -18.71187119      0.00018778      0.00003407
    -18.70787079      0.00089609      0.00000611
    -18.70387039      0.00365048      0.00000251
    -18.69986999      0.01269826      0.00001205
    -18.69586959      0.03774983      0.00007431
    -18.69186919      0.09602831      0.00039473
    -18.68786879      0.20938145      0.00179036
    -18.68386839      0.39222232      0.00693408
    -18.67986799      0.63312825      0.02293743
    -18.67586759      0.88401386      0.06482098
    -18.67186719      1.07243682      0.15653582
    -18.66786679      1.13585637      0.32311346
    -18.66386639      1.05512840      0.57023962
    -18.65986599      0.86269364      0.86067300
    -18.65586559      0.62191040      1.11125044
    -18.65186519      0.39508999      1.22768634
    -18.64786479      0.22060791      1.16081891
    -18.64386439      0.10782391      0.93957404
    -18.63986399      0.04590937      0.65111849
    -18.63586359      0.01694851      0.38637324
    -18.63186319      0.00540245      0.19633962
    -18.62786279      0.00148179      0.08544323
    -18.62386239      0.00034878      0.03184268
    -18.61986199      0.00007031      0.01016192
    -18.61586159      0.00001213      0.00277669
    -18.61186119      0.00000188      0.00064953
    -18.60786079      0.00000104      0.00013005
    -18.60386039      0.00000621      0.00002229
    -18.59985999      0.00003987      0.00000331
    -18.59585959      0.00021915      0.00000079
    -18.59185919      0.00102639      0.00000312
    -18.58785879      0.00409620      0.00002103
    -18.58385839      0.01392995      0.00012227
    -18.57985799      0.04036614      0.00060594
    -18.57585759      0.09967445      0.00255884
    -18.57185719      0.20972470      0.00920783
    -18.56785679      0.37602300      0.02823385
    -18.56385639      0.57448455      0.07377037
    -18.55985599      0.74789630      0.16424528
    -18.55585559      0.82966642      0.31160393
    -18.55185519      0.78426845      0.50374651
    -18.54785479      0.63172064      0.69393736
    -18.54385439      0.43359522      0.81456844
    -18.53985399      0.25359635      0.81476804
    -18.53585359      0.12638648      0.69444761
    -18.53185319      0.05367318      0.50436401
    -18.52785279      0.01942286      0.31213882
    -18.52385239      0.00598919      0.16460786
    -18.51985199      0.00157370      0.07396946
    -18.51585159      0.00035235      0.02832393
    -18.51185119      0.00006722      0.00924174
    -18.50785079      0.00001093      0.00256952
    -18.50385039      0.00000151      0.00060877
    -18.49984998      0.00000018      0.00012290
    -18.49584958      0.00000002      0.00002114
    -18.49184918      0.00000000      0.00000310
    -18.48784878      0.00000000      0.00000039
    -18.48384838      0.00000000      0.00000004
    -18.47984798      0.00000000      0.00000000
    -18.47584758      0.00000000      0.00000000
    -18.47184718      0.00000000      0.00000000
    -18.46784678      0.00000000      0.00000000
    -18.46384638      0.00000000      0.00000000
    -18.45984598      0.00000000      0.00000000
    -18.45584558      0.00000000      0.00000000
    -18.45184518      0.00000000      0.00000000
    -18.44784478      0.00000000      0.00000000
    -18.44384438      0.00000000      0.00000000
    -18.43984398      0.00000000      0.00000000
    -18.43584358      0.00000000      0.00000000
    -18.43184318      0.00000000      0.00000000
    -18.42784278      0.00000000      0.00000000
    -18.42384238      0.00000000      0.00000000
    -18.41984198      0.00000005      0.00000000
    -18.41584158      0.00000046      0.00000000
    -18.41184118      0.00000344      0.00000000
    -18.40784078      0.00002211      0.00000003
    -18.40384038      0.00012147      0.00000024
    -18.39983998      0.00057069      0.00000189
    -18.39583958      0.00229621      0.00001274
    -18.39183918      0.00792993      0.00007334
    -18.38783878      0.02357565      0.00036074
