# total density of states output by FHI-aims, for a spin polarized system
# The energy reference for this output is the vacuum level
#    Energy (eV)      DOS(spin up)   DOS(spin down)
    -20.00000000      0.04812246      0.12524243
    -19.99599960      0.04648882      0.11867771
    -19.99199920      0.04509838      0.11234342
    -19.98799880      0.04394391      0.10625020
    -19.98399840      0.04301774      0.10040723
    -19.97999800      0.04231185      0.09482229
    -19.97599760      0.04181783      0.08950176
    -19.97199720      0.04152700      0.08445072
    -19.96799680      0.04143040      0.07967298
    -19.96399640      0.04151882      0.07517114
    -19.95999600      0.04178280      0.07094666
    -19.95599560      0.04221272      0.06699994
    -19.95199520      0.04279874      0.06333037
    -19.94799480      0.04353088      0.05993640
    -19.94399440      0.04439901      0.05681561
    -19.93999400      0.04539287      0.05396480
    -19.93599360      0.04650207      0.05138002
    -19.93199320      0.04771614      0.04905668
    -19.92799280      0.04902453      0.04698955
    -19.92399240      0.05041661      0.04517287
    -19.91999200      0.05188172      0.04360038
    -19.91599160      0.05340916      0.04226539
    -19.91199120      0.05498823      0.04116078
    -19.90799080      0.05660823      0.04027910
    -19.90399040      0.05825853      0.03961258
    -19.89999000      0.05992854      0.03915314
    -19.89598960      0.06160777      0.03889246
    -19.89198920      0.06328586      0.03882199
    -19.88798880      0.06495262      0.03893297
    -19.88398840      0.06659801      0.03921646
    -19.87998800      0.06821224      0.03966333
    -19.87598760      0.06978579      0.04026431
    -19.87198720      0.07130943      0.04100998
    -19.86798680      0.07277424      0.04189078
    -19.86398640      0.07417170      0.04289705
    -19.85998600      0.07549370      0.04401901
    -19.85598560      0.07673255      0.04524677
    -19.85198520      0.07788109      0.04657036
    -19.84798480      0.07893262      0.04797973
    -19.84398440      0.07988103      0.04946477
    -19.83998400      0.08072078      0.05101529
    -19.83598360      0.08144693      0.05262112
    -19.83198320      0.08205519      0.05427201
    -19.82798280      0.08254190      0.05595777
    -19.82398240      0.08290409      0.05766818
    -19.81998200      0.08313947      0.05939311
    -19.81598160      0.08324645      0.06112248
    -19.81198120      0.08322413      0.06284634
    -19.80798080      0.08307234      0.06455484
    -19.80398040      0.08279158      0.06623834
    -19.79998000      0.08238305      0.06788736
    -19.79597960      0.08184866      0.06949270
    -19.79197920      0.08119094      0.07104540
    -19.78797880      0.08041310      0.07253683
    -19.78397840      0.07951895      0.07395871
    -19.77997800      0.07851292      0.07530315
    -19.77597760      0.07739998      0.07656270
    -19.77197720      0.07618564      0.07773034
    -19.76797680      0.07487591      0.07879959
    -19.76397640      0.07347726      0.07976447
    -19.75997600      0.07199657      0.08061958
    -19.75597560      0.07044109      0.08136012
    -19.75197520      0.06881845      0.08198190
    -19.74797480      0.06713652      0.08248137
    -19.74397440      0.06540349      0.08285564
    -19.73997400      0.06362770      0.08310252
    -19.73597360      0.06181773      0.08322048
    -19.73197320      0.05998227      0.08320870
    -19.72797280      0.05813013      0.08306704
    -19.72397240      0.05627020      0.08279609
    -19.71997200      0.05441140      0.08239709
    -19.71597160      0.05256269      0.08187199
    -19.71197120      0.05073303      0.08122338
    -19.70797080      0.04893135      0.08045452
    -19.70397040      0.04716657      0.07956928
    -19.69997000      0.04544753      0.07857213
    -19.69596960      0.04378304      0.07746810
    -19.69196920      0.04218184      0.07626277
    -19.68796880      0.04065263      0.07496222
    -19.68396840      0.03920403      0.07357299
    -19.67996800      0.03784462      0.07210205
    -19.67596760      0.03658294      0.07055676
    -19.67196720      0.03542749      0.06894483
    -19.66796680      0.03438675      0.06727428
    -19.66396640      0.03346922      0.06555339
    -19.65996600      0.03268337      0.06379070
    -19.65596560      0.03203771      0.06199491
    -19.65196520      0.03154081      0.06017490
    -19.64796480      0.03120128      0.05833969
    -19.64396440      0.03102778      0.05649836
    -19.63996400      0.03102909      0.05466009
    -19.63596360      0.03121406      0.05283409
    -19.63196320      0.03159163      0.05102959
    -19.62796280      0.03217085      0.04925583
    -19.62396240      0.03296087      0.04752203
    -19.61996200      0.03397092      0.04583741
    -19.61596160      0.03521032      0.04421114
    -19.61196120      0.03668845      0.04265235
    -19.60796080      0.03841473      0.04117017
    -19.60396040      0.04039857      0.03977365
    -19.59996000      0.04264939      0.03847186
    -19.59595960      0.04517649      0.03727381
    -19.59195920      0.04798908      0.03618854
    -19.58795880      0.05109618      0.03522506
    -19.58395840      0.05450655      0.03439242
    -19.57995800      0.05822865      0.03369967
    -19.57595760      0.06227052      0.03315591
    -19.57195720      0.06663973      0.03277032
    -19.56795680      0.07134328      0.03255210
    -19.56395640      0.07638748      0.03251057
    -19.55995600      0.08177787      0.03265509
    -19.55595560      0.08751914      0.03299513
    -19.55195520      0.09361496      0.03354025
    -19.54795480      0.10006794      0.03430009
    -19.54395440      0.10687947      0.03528436
    -19.53995400      0.11404962      0.03650283
    -19.53595360      0.12157707      0.03796534
    -19.53195320      0.12945894      0.03968171
    -19.52795280      0.13769076      0.04166177
    -19.52395240      0.14626633      0.04391529
    -19.51995200      0.15517764      0.04645194
    -19.51595160      0.16441481      0.04928125
    -19.51195120      0.17396599      0.05241251
    -19.50795080      0.18381736      0.05585476
    -19.50395040      0.19395302      0.05961665
    -19.49994999      0.20435498      0.06370642
    -19.49594959      0.21500319      0.06813177
    -19.49194919      0.22587547      0.07289979
    -19.48794879      0.23694760      0.07801684
    -19.48394839      0.24819329      0.08348846
    -19.47994799      0.25958427      0.08931927
    -19.47594759      0.27109037      0.09551283
    -19.47194719      0.28267960      0.10207157
    -19.46794679      0.29431825      0.10899663
    -19.46394639      0.30597105      0.11628779
    -19.45994599      0.31760128      0.12394335
    -19.45594559      0.32917098      0.13195999
    -19.45194519      0.34064110      0.14033274
    -19.44794479      0.35197172      0.14905480
    -19.44394439      0.36312224      0.15811751
    -19.43994399      0.37405164      0.16751026
    -19.43594359      0.38471868      0.17722043
    -19.43194319      0.39508220      0.18723330
    -19.42794279      0.40510131      0.19753205
    -19.42394239      0.41473570      0.20809771
    -19.41994199      0.42394589      0.21890916
    -19.41594159      0.43269347      0.22994313
    -19.41194119      0.44094141      0.24117422
    -19.40794079      0.44865428      0.25257496
    -19.40394039      0.45579848      0.26411585
    -19.39993999      0.46234255      0.27576547
    -19.39593959      0.46825733      0.28749055
    -19.39193919      0.47351620      0.29925611
    -19.38793879      0.47809530      0.31102560
    -19.38393839      0.48197367      0.32276105
    -19.37993799      0.48513341      0.33442326
    -19.37593759      0.48755987      0.34597199
    -19.37193719      0.48924169      0.35736616
    -19.36793679      0.49017092      0.36856410
    -19.36393639      0.49034312      0.37952377
    -19.35993599      0.48975731      0.39020301
    -19.35593559      0.48841605      0.40055982
    -19.35193519      0.48632540      0.41055258
    -19.34793479      0.48349485      0.42014039
    -19.34393439      0.47993729      0.42928325
    -19.33993399      0.47566887      0.43794244
    -19.33593359      0.47070892      0.44608067
    -19.33193319      0.46507976      0.45366245
    -19.32793279      0.45880657      0.46065428
    -19.32393239      0.45191717      0.46702492
    -19.31993199      0.44444185      0.47274558
    -19.31593159      0.43641312      0.47779021
    -19.31193119      0.42786549      0.48213561
    -19.30793079      0.41883519      0.48576167
    -19.30393039      0.40935998      0.48865149
    -19.29992999      0.39947883      0.49079152
    -19.29592959      0.38923167      0.49217166
    -19.29192919      0.37865913      0.49278534
    -19.28792879      0.36780229      0.49262959
    -19.28392839      0.35670237      0.49170502
    -19.27992799      0.34540051      0.49001586
    -19.27592759      0.33393755      0.48756989
    -19.27192719      0.32235370      0.48437843
    -19.26792679      0.31068840      0.48045619
    -19.26392639      0.29898009      0.47582119
    -19.25992599      0.28726599      0.47049464
    -19.25592559      0.27558191      0.46450073
    -19.25192519      0.26396213      0.45786650
    -19.24792479      0.25243922      0.45062158
    -19.24392439      0.24104394      0.44279803
    -19.23992399      0.22980509      0.43443006
    -19.23592359      0.21874948      0.42555378
    -19.23192319      0.20790181      0.41620699
    -19.22792279      0.19728464      0.40642884
    -19.22392239      0.18691838      0.39625963
    -19.21992199      0.17682123      0.38574049
    -19.21592159      0.16700925      0.37491310
    -19.21192119      0.15749630      0.36381946
    -19.20792079      0.14829414      0.35250158
    -19.20392039      0.13941248      0.34100126
    -19.19991999      0.13085898      0.32935981
    -19.19591959      0.12263939      0.31761780
    -19.19191919      0.11475761      0.30581489
    -19.18791879      0.10721579      0.29398957
    -19.18391839      0.10001440      0.28217899
    -19.17991799      0.09315239      0.27041877
    -19.17591759      0.08662726      0.25874285
    -19.17191719      0.08043521      0.24718337
    -19.16791679      0.07457120      0.23577052
    -19.16391639      0.06902914      0.22453247
    -19.15991599      0.06380197      0.21349526
    -19.15591559      0.05888178      0.20268278
    -19.15191519      0.05425991      0.19211671
    -19.14791479      0.04992712      0.18181649
    -19.14391439      0.04587362      0.17179935
    -19.13991399      0.04208924      0.16208030
    -19.13591359      0.03856350      0.15267216
    -19.13191319      0.03528571      0.14358563
    -19.12791279      0.03224505      0.13482932
    -19.12391239      0.02943066      0.12640987
    -19.11991199      0.02683173      0.11833196
    -19.11591159      0.02443755      0.11059849
    -19.11191119      0.02223757      0.10321060
    -19.10791079      0.02022150      0.09616785
    -19.10391039      0.01837929      0.08946829
    -19.09990999      0.01670123      0.08310858
    -19.09590959      0.01517799      0.07708414
    -19.09190919      0.01380062      0.07138923
    -19.08790879      0.01256058      0.06601713
    -19.08390839      0.01144980      0.06096019
    -19.07990799      0.01046066      0.05621001
    -19.07590759      0.00958602      0.05175754
    -19.07190719      0.00881922      0.04759318
    -19.06790679      0.00815408      0.04370689
    -19.06390639      0.00758493      0.04008832
    -19.05990599      0.00710656      0.03672688
    -19.05590559      0.00671424      0.03361185
    -19.05190519      0.00640373      0.03073246
    -19.04790479      0.00617121      0.02807796
    -19.04390439      0.00601334      0.02563773
    -19.03990399      0.00592716      0.02340131
    -19.03590359      0.00591016      0.02135846
    -19.03190319      0.00596017      0.01949925
    -19.02790279      0.00607542      0.01781406
    -19.02390239      0.00625445      0.01629366
    -19.01990199      0.00649613      0.01492921
    -19.01590159      0.00679960      0.01371232
    -19.01190119      0.00716427      0.01263505
    -19.00790079      0.00758978      0.01168993
    -19.00390039      0.00807596      0.01086997
    -18.99989999      0.00862283      0.01016868
    -18.99589959      0.00923053      0.00958006
    -18.99189919      0.00989931      0.00909860
    -18.98789879      0.01062953      0.00871925
    -18.98389839      0.01142154      0.00843747
    -18.97989799      0.01227576      0.00824914
    -18.97589759      0.01319255      0.00815059
    -18.97189719      0.01417225      0.00813859
    -18.96789679      0.01521511      0.00821028
    -18.96389639      0.01632126      0.00836319
    -18.95989599      0.01749069      0.00859518
    -18.95589559      0.01872324      0.00890444
    -18.95189519      0.02001852      0.00928942
    -18.94789479      0.02137595      0.00974887
    -18.94389439      0.02279466      0.01028170
    -18.93989399      0.02427353      0.01088705
    -18.93589359      0.02581114      0.01156420
    -18.93189319      0.02740575      0.01231253
    -18.92789279      0.02905529      0.01313152
    -18.92389239      0.03075734      0.01402068
    -18.91989199      0.03250911      0.01497954
    -18.91589159      0.03430747      0.01600759
    -18.91189119      0.03614888      0.01710427
    -18.90789079      0.03802945      0.01826891
    -18.90389039      0.03994491      0.01950073
    -18.89988999      0.04189062      0.02079877
    -18.89588959      0.04386157      0.02216189
    -18.89188919      0.04585242      0.02358873
    -18.88788879      0.04785749      0.02507770
    -18.88388839      0.04987078      0.02662690
    -18.87988799      0.05188602      0.02823418
    -18.87588759      0.05389667      0.02989706
    -18.87188719      0.05589597      0.03161273
    -18.86788679      0.05787695      0.03337806
    -18.86388639      0.05983249      0.03518955
    -18.85988599      0.06175537      0.03704337
    -18.85588559      0.06363827      0.03893529
    -18.85188519      0.06547386      0.04086077
    -18.84788479      0.06725482      0.04281490
    -18.84388439      0.06897390      0.04479241
    -18.83988399      0.07062395      0.04678774
    -18.83588359      0.07219799      0.04879498
    -18.83188319      0.07368927      0.05080795
    -18.82788279      0.07509129      0.05282020
    -18.82388239      0.07639784      0.05482503
    -18.81988199      0.07760309      0.05681555
    -18.81588159      0.07870160      0.05878468
    -18.81188119      0.07968840      0.06072522
    -18.80788079      0.08055895      0.06262987
    -18.80388039      0.08130928      0.06449128
    -18.79987999      0.08193595      0.06630210
    -18.79587959      0.08243609      0.06805502
    -18.79187919      0.08280745      0.06974280
    -18.78787879      0.08304842      0.07135838
    -18.78387839      0.08315800      0.07289484
    -18.77987799      0.08313587      0.07434554
    -18.77587759      0.08298235      0.07570409
    -18.77187719      0.08269844      0.07696445
    -18.76787679      0.08228578      0.07812095
    -18.76387639      0.08174665      0.07916836
    -18.75987599      0.08108401      0.08010188
    -18.75587559      0.08030138      0.08091723
    -18.75187519      0.07940292      0.08161066
    -18.74787479      0.07839335      0.08217898
    -18.74387439      0.07727792      0.08261961
    -18.73987399      0.07606239      0.08293057
    -18.73587359      0.07475301      0.08311051
    -18.73187319      0.07335646      0.08315873
    -18.72787279      0.07187981      0.08307519
    -18.72387239      0.07033050      0.08286051
    -18.71987199      0.06871625      0.08251597
    -18.71587159      0.06704508      0.08204348
    -18.71187119      0.06532524      0.08144561
    -18.70787079      0.06356515      0.08072556
    -18.70387039      0.06177336      0.07988713
    -18.69986999      0.05995854      0.07893469
    -18.69586959      0.05812942      0.07787319
    -18.69186919      0.05629473      0.07670809
    -18.68786879      0.05446321      0.07544534
    -18.68386839      0.05264354      0.07409134
    -18.67986799      0.05084432      0.07265291
    -18.67586759      0.04907403      0.07113726
    -18.67186719      0.04734104      0.06955190
    -18.66786679      0.04565352      0.06790465
    -18.66386639      0.04401950      0.06620358
    -18.65986599      0.04244679      0.06445695
    -18.65586559      0.04094296      0.06267318
    -18.65186519      0.03951540      0.06086081
    -18.64786479      0.03817121      0.05902847
    -18.64386439      0.03691726      0.05718482
    -18.63986399      0.03576016      0.05533850
    -18.63586359      0.03470624      0.05349815
    -18.63186319      0.03376157      0.05167233
    -18.62786279      0.03293193      0.04986948
    -18.62386239      0.03222282      0.04809795
    -18.61986199      0.03163944      0.04636592
    -18.61586159      0.03118673      0.04468140
    -18.61186119      0.03086930      0.04305222
    -18.60786079      0.03069146      0.04148597
    -18.60386039      0.03065723      0.03999005
    -18.59985999      0.03077029      0.03857162
    -18.59585959      0.03103400      0.03723757
    -18.59185919      0.03145137      0.03599457
    -18.58785879      0.03202507      0.03484901
    -18.58385839      0.03275740      0.03380701
    -18.57985799      0.03365027      0.03287444
    -18.57585759      0.03470520      0.03205688
    -18.57185719      0.03592327      0.03135966
    -18.56785679      0.03730514      0.03078779
    -18.56385639      0.03885100      0.03034603
    -18.55985599      0.04056053      0.03003885
    -18.55585559      0.04243293      0.02987042
    -18.55185519      0.04446686      0.02984462
    -18.54785479      0.04666041      0.02996501
    -18.54385439      0.04901110      0.03023487
    -18.53985399      0.05151586      0.03065711
    -18.53585359      0.05417099      0.03123434
    -18.53185319      0.05697214      0.03196881
    -18.52785279      0.05991434      0.03286239
    -18.52385239      0.06299193      0.03391658
    -18.51985199      0.06619861      0.03513247
    -18.51585159      0.06952738      0.03651071
    -18.51185119      0.07297060      0.03805153
    -18.50785079      0.07651996      0.03975465
    -18.50385039      0.08016651      0.04161931
    -18.49984998      0.08390068      0.04364425
    -18.49584958      0.08771231      0.04582762
    -18.49184918      0.09159066      0.04816704
    -18.48784878      0.09552452      0.05065950
    -18.48384838      0.09950216      0.05330140
    -18.47984798      0.10351148      0.05608851
    -18.47584758      0.10754003      0.05901592
    -18.47184718      0.11157506      0.06207809
    -18.46784678      0.11560366      0.06526879
    -18.46384638      0.11961279      0.06858111
    -18.45984598      0.12358939      0.07200746
    -18.45584558      0.12752049      0.07553961
    -18.45184518      0.13139327      0.07916864
    -18.44784478      0.13519521      0.08288498
    -18.44384438      0.13891418      0.08667849
    -18.43984398      0.14253854      0.09053839
    -18.43584358      0.14605725      0.09445339
    -18.43184318      0.14946002      0.09841168
    -18.42784278      0.15273735      0.10240103
    -18.42384238      0.15588071      0.10640881
    -18.41984198      0.15888258      0.11042205
    -18.41584158      0.16173660      0.11442759
    -18.41184118      0.16443764      0.11841206
    -18.40784078      0.16698188      0.12236205
    -18.40384038      0.16936691      0.12626416
    -18.39983998      0.17159179      0.13010511
    -18.39583958      0.17365708      0.13387185
    -18.39183918      0.17556494      0.13755166
    -18.38783878      0.17731913      0.14113225
