# total density of states output by FHI-aims, for a spin polarized system
# The energy reference for this output is the average chemical potential, mu =       -5.545725 eV
#    Energy (eV)      DOS(spin up)   DOS(spin down)
    -14.45427532      0.10554255      0.15409222
    -14.45027492      0.10338956      0.15104978
    -14.44627452      0.10130758      0.14802038
    -14.44227412      0.09929742      0.14500909
    -14.43827372      0.09735969      0.14202081
    -14.43427332      0.09549475      0.13906026
    -14.43027292      0.09370271      0.13613200
    -14.42627252      0.09198350      0.13324037
    -14.42227212      0.09033681      0.13038953
    -14.41827172      0.08876212      0.12758338
    -14.41427132      0.08725872      0.12482565
    -14.41027092      0.08582573      0.12211979
    -14.40627052      0.08446207      0.11946906
    -14.40227012      0.08316648      0.11687644
    -14.39826972      0.08193759      0.11434468
    -14.39426932      0.08077383      0.11187629
    -14.39026892      0.07967353      0.10947351
    -14.38626852      0.07863489      0.10713834
    -14.38226812      0.07765601      0.10487253
    -14.37826772      0.07673486      0.10267757
    -14.37426732      0.07586936      0.10055471
    -14.37026692      0.07505735      0.09850494
    -14.36626652      0.07429659      0.09652902
    -14.36226612      0.07358481      0.09462748
    -14.35826572      0.07291972      0.09280058
    -14.35426532      0.07229897      0.09104840
    -14.35026492      0.07172023      0.08937076
    -14.34626452      0.07118118      0.08776730
    -14.34226412      0.07067948      0.08623742
    -14.33826372      0.07021286      0.08478037
    -14.33426332      0.06977905      0.08339516
    -14.33026292      0.06937586      0.08208067
    -14.32626252      0.06900115      0.08083559
    -14.32226212      0.06865285      0.07965845
    -14.31826172      0.06832899      0.07854765
    -14.31426132      0.06802766      0.07750146
    -14.31026092      0.06774708      0.07651801
    -14.30626052      0.06748558      0.07559534
    -14.30226012      0.06724159      0.07473138
    -14.29825972      0.06701369      0.07392398
    -14.29425932      0.06680058      0.07317093
    -14.29025892      0.06660110      0.07246995
    -14.28625852      0.06641425      0.07181870
    -14.28225812      0.06623918      0.07121484
    -14.27825772      0.06607520      0.07065598
    -14.27425732      0.06592177      0.07013973
    -14.27025692      0.06577854      0.06966372
    -14.26625652      0.06564531      0.06922556
    -14.26225612      0.06552205      0.06882292
    -14.25825572      0.06540894      0.06845350
    -14.25425532      0.06530629      0.06811504
    -14.25025492      0.06521461      0.06780536
    -14.24625452      0.06513459      0.06752234
    -14.24225412      0.06506710      0.06726395
    -14.23825372      0.06501315      0.06702824
    -14.23425332      0.06497396      0.06681337
    -14.23025292      0.06495092      0.06661762
    -14.22625252      0.06494555      0.06643937
    -14.22225212      0.06495957      0.06627715
    -14.21825172      0.06499484      0.06612962
    -14.21425132      0.06505337      0.06599556
    -14.21025092      0.06513735      0.06587392
    -14.20625052      0.06524906      0.06576381
    -14.20225012      0.06539095      0.06566447
    -14.19824972      0.06556559      0.06557534
    -14.19424932      0.06577565      0.06549601
    -14.19024892      0.06602394      0.06542623
    -14.18624852      0.06631336      0.06536594
    -14.18224812      0.06664688      0.06531526
    -14.17824772      0.06702758      0.06527448
    -14.17424732      0.06745860      0.06524406
    -14.17024692      0.06794313      0.06522466
    -14.16624652      0.06848442      0.06521709
    -14.16224612      0.06908576      0.06522236
    -14.15824572      0.06975046      0.06524164
    -14.15424532      0.07048183      0.06527629
    -14.15024492      0.07128319      0.06532783
    -14.14624452      0.07215785      0.06539794
    -14.14224412      0.07310910      0.06548846
    -14.13824372      0.07414015      0.06560140
    -14.13424332      0.07525421      0.06573890
    -14.13024292      0.07645437      0.06590327
    -14.12624252      0.07774368      0.06609694
    -14.12224212      0.07912507      0.06632247
    -14.11824172      0.08060137      0.06658254
    -14.11424132      0.08217526      0.06687996
    -14.11024092      0.08384932      0.06721763
    -14.10624052      0.08562595      0.06759854
    -14.10224012      0.08750740      0.06802577
    -14.09823972      0.08949571      0.06850249
    -14.09423932      0.09159276      0.06903189
    -14.09023892      0.09380021      0.06961726
    -14.08623852      0.09611950      0.07026190
    -14.08223812      0.09855183      0.07096915
    -14.07823772      0.10109817      0.07174234
    -14.07423732      0.10375921      0.07258483
    -14.07023692      0.10653541      0.07349996
    -14.06623652      0.10942691      0.07449103
    -14.06223612      0.11243360      0.07556130
    -14.05823572      0.11555504      0.07671401
    -14.05423532      0.11879050      0.07795229
    -14.05023492      0.12213896      0.07927921
    -14.04623452      0.12559903      0.08069773
    -14.04223412      0.12916903      0.08221071
    -14.03823372      0.13284694      0.08382088
    -14.03423332      0.13663041      0.08553083
    -14.03023292      0.14051674      0.08734299
    -14.02623252      0.14450289      0.08925962
    -14.02223212      0.14858549      0.09128281
    -14.01823172      0.15276082      0.09341444
    -14.01423132      0.15702483      0.09565619
    -14.01023092      0.16137311      0.09800949
    -14.00623052      0.16580095      0.10047558
    -14.00223012      0.17030327      0.10305540
    -13.99822972      0.17487469      0.10574967
    -13.99422932      0.17950952      0.10855882
    -13.99022892      0.18420176      0.11148298
    -13.98622852      0.18894509      0.11452203
    -13.98222812      0.19373293      0.11767550
    -13.97822772      0.19855841      0.12094265
    -13.97422732      0.20341440      0.12432239
    -13.97022692      0.20829355      0.12781331
    -13.96622652      0.21318823      0.13141370
    -13.96222612      0.21809063      0.13512147
    -13.95822572      0.22299275      0.13893420
    -13.95422532      0.22788638      0.14284915
    -13.95022492      0.23276319      0.14686321
    -13.94622452      0.23761469      0.15097293
    -13.94222412      0.24243228      0.15517450
    -13.93822372      0.24720728      0.15946380
    -13.93422332      0.25193092      0.16383632
    -13.93022292      0.25659440      0.16828726
    -13.92622252      0.26118890      0.17281145
    -13.92222212      0.26570559      0.17740342
    -13.91822172      0.27013570      0.18205735
    -13.91422132      0.27447048      0.18676713
    -13.91022092      0.27870129      0.19152636
    -13.90622052      0.28281957      0.19632832
    -13.90222012      0.28681691      0.20116605
    -13.89821972      0.29068505      0.20603230
    -13.89421932      0.29441593      0.21091959
    -13.89021892      0.29800168      0.21582021
    -13.88621852      0.30143467      0.22072622
    -13.88221811      0.30470753      0.22562950
    -13.87821771      0.30781315      0.23052176
    -13.87421731      0.31074477      0.23539454
    -13.87021691      0.31349590      0.24023927
    -13.86621651      0.31606044      0.24504725
    -13.86221611      0.31843263      0.24980970
    -13.85821571      0.32060711      0.25451777
    -13.85421531      0.32257891      0.25916260
    -13.85021491      0.32434350      0.26373527
    -13.84621451      0.32589674      0.26822691
    -13.84221411      0.32723500      0.27262868
    -13.83821371      0.32835504      0.27693179
    -13.83421331      0.32925415      0.28112755
    -13.83021291      0.32993005      0.28520739
    -13.82621251      0.33038099      0.28916288
    -13.82221211      0.33060566      0.29298575
    -13.81821171      0.33060330      0.29666794
    -13.81421131      0.33037359      0.30020159
    -13.81021091      0.32991676      0.30357910
    -13.80621051      0.32923349      0.30679313
    -13.80221011      0.32832499      0.30983664
    -13.79820971      0.32719294      0.31270291
    -13.79420931      0.32583949      0.31538554
    -13.79020891      0.32426729      0.31787850
    -13.78620851      0.32247943      0.32017614
    -13.78220811      0.32047947      0.32227319
    -13.77820771      0.31827140      0.32416481
    -13.77420731      0.31585964      0.32584659
    -13.77020691      0.31324903      0.32731456
    -13.76620651      0.31044478      0.32856521
    -13.76220611      0.30745250      0.32959548
    -13.75820571      0.30427815      0.33040282
    -13.75420531      0.30092802      0.33098515
    -13.75020491      0.29740871      0.33134089
    -13.74620451      0.29372715      0.33146895
    -13.74220411      0.28989049      0.33136875
    -13.73820371      0.28590618      0.33104021
    -13.73420331      0.28178186      0.33048375
    -13.73020291      0.27752538      0.32970031
    -13.72620251      0.27314478      0.32869131
    -13.72220211      0.26864823      0.32745866
    -13.71820171      0.26404404      0.32600476
    -13.71420131      0.25934062      0.32433249
    -13.71020091      0.25454646      0.32244519
    -13.70620051      0.24967010      0.32034667
    -13.70220011      0.24472012      0.31804115
    -13.69819971      0.23970508      0.31553330
    -13.69419931      0.23463354      0.31282820
    -13.69019891      0.22951403      0.30993131
    -13.68619851      0.22435499      0.30684847
    -13.68219811      0.21916481      0.30358587
    -13.67819771      0.21395175      0.30015003
    -13.67419731      0.20872394      0.29654780
    -13.67019691      0.20348940      0.29278630
    -13.66619651      0.19825596      0.28887292
    -13.66219611      0.19303128      0.28481530
    -13.65819571      0.18782283      0.28062128
    -13.65419531      0.18263788      0.27629891
    -13.65019491      0.17748347      0.27185641
    -13.64619451      0.17236640      0.26730214
    -13.64219411      0.16729324      0.26264456
    -13.63819371      0.16227029      0.25789225
    -13.63419331      0.15730360      0.25305384
    -13.63019291      0.15239895      0.24813802
    -13.62619251      0.14756182      0.24315348
    -13.62219211      0.14279742      0.23810891
    -13.61819171      0.13811069      0.23301298
    -13.61419131      0.13350626      0.22787432
    -13.61019091      0.12898846      0.22270145
    -13.60619051      0.12456134      0.21750282
    -13.60219011      0.12022865      0.21228677
    -13.59818971      0.11599385      0.20706150
    -13.59418931      0.11186012      0.20183504
    -13.59018891      0.10783031      0.19661527
    -13.58618851      0.10390703      0.19140988
    -13.58218811      0.10009258      0.18622634
    -13.57818771      0.09638899      0.18107193
    -13.57418731      0.09279804      0.17595365
    -13.57018691      0.08932120      0.17087832
    -13.56618651      0.08595972      0.16585246
    -13.56218611      0.08271458      0.16088233
    -13.55818571      0.07958653      0.15597394
    -13.55418531      0.07657606      0.15113300
    -13.55018491      0.07368345      0.14636493
    -13.54618451      0.07090877      0.14167487
    -13.54218411      0.06825184      0.13706767
    -13.53818371      0.06571233      0.13254784
    -13.53418331      0.06328967      0.12811964
    -13.53018291      0.06098313      0.12378700
    -13.52618251      0.05879181      0.11955354
    -13.52218211      0.05671462      0.11542260
    -13.51818171      0.05475034      0.11139721
    -13.51418131      0.05289757      0.10748009
    -13.51018091      0.05115481      0.10367368
    -13.50618051      0.04952039      0.09998014
    -13.50218011      0.04799254      0.09640132
    -13.49817971      0.04656937      0.09293881
    -13.49417931      0.04524889      0.08959392
    -13.49017891      0.04402900      0.08636770
    -13.48617851      0.04290751      0.08326091
    -13.48217811      0.04188216      0.08027411
    -13.47817771      0.04095059      0.07740757
    -13.47417731      0.04011039      0.07466136
    -13.47017691      0.03935908      0.07203528
    -13.46617651      0.03869413      0.06952896
    -13.46217611      0.03811293      0.06714179
    -13.45817571      0.03761285      0.06487296
    -13.45417531      0.03719123      0.06272149
    -13.45017491      0.03684534      0.06068618
    -13.44617451      0.03657244      0.05876570
    -13.44217411      0.03636977      0.05695852
    -13.43817371      0.03623453      0.05526298
    -13.43417331      0.03616392      0.05367726
    -13.43017291      0.03615512      0.05219941
    -13.42617251      0.03620529      0.05082735
    -13.42217211      0.03631160      0.04955888
    -13.41817171      0.03647122      0.04839168
    -13.41417131      0.03668131      0.04732334
    -13.41017091      0.03693904      0.04635135
    -13.40617051      0.03724159      0.04547312
    -13.40217011      0.03758614      0.04468596
    -13.39816971      0.03796991      0.04398712
    -13.39416931      0.03839011      0.04337380
    -13.39016891      0.03884398      0.04284312
    -13.38616851      0.03932880      0.04239216
    -13.38216811      0.03984186      0.04201796
    -13.37816771      0.04038049      0.04171749
    -13.37416731      0.04094203      0.04148774
    -13.37016691      0.04152389      0.04132562
    -13.36616651      0.04212349      0.04122807
    -13.36216611      0.04273833      0.04119197
    -13.35816571      0.04336591      0.04121422
    -13.35416531      0.04400381      0.04129170
    -13.35016491      0.04464966      0.04142131
    -13.34616451      0.04530113      0.04159994
    -13.34216411      0.04595596      0.04182448
    -13.33816371      0.04661197      0.04209186
    -13.33416331      0.04726700      0.04239903
    -13.33016291      0.04791901      0.04274293
    -13.32616251      0.04856600      0.04312057
    -13.32216211      0.04920605      0.04352898
    -13.31816171      0.04983735      0.04396521
    -13.31416131      0.05045812      0.04442638
    -13.31016091      0.05106671      0.04490964
    -13.30616051      0.05166154      0.04541219
    -13.30216011      0.05224113      0.04593129
    -13.29815971      0.05280409      0.04646426
    -13.29415931      0.05334914      0.04700849
    -13.29015891      0.05387508      0.04756141
    -13.28615851      0.05438083      0.04812054
    -13.28215811      0.05486541      0.04868349
    -13.27815771      0.05532796      0.04924791
    -13.27415731      0.05576772      0.04981157
    -13.27015691      0.05618405      0.05037229
    -13.26615651      0.05657641      0.05092802
    -13.26215611      0.05694440      0.05147677
    -13.25815571      0.05728771      0.05201665
    -13.25415531      0.05760617      0.05254590
    -13.25015491      0.05789972      0.05306281
    -13.24615451      0.05816843      0.05356583
    -13.24215411      0.05841246      0.05405349
    -13.23815371      0.05863213      0.05452443
    -13.23415331      0.05882784      0.05497740
    -13.23015291      0.05900013      0.05541129
    -13.22615251      0.05914965      0.05582509
    -13.22215211      0.05927716      0.05621792
    -13.21815171      0.05938353      0.05658900
    -13.21415131      0.05946977      0.05693770
    -13.21015091      0.05953695      0.05726349
    -13.20615051      0.05958627      0.05756599
    -13.20215011      0.05961904      0.05784493
    -13.19814971      0.05963664      0.05810017
    -13.19414931      0.05964056      0.05833169
    -13.19014891      0.05963238      0.05853961
    -13.18614851      0.05961375      0.05872415
    -13.18214811      0.05958642      0.05888568
    -13.17814771      0.05955218      0.05902468
    -13.17414731      0.05951293      0.05914175
    -13.17014691      0.05947059      0.05923760
    -13.16614651      0.05942716      0.05931309
    -13.16214611      0.05938468      0.05936914
    -13.15814571      0.05934525      0.05940684
    -13.15414531      0.05931098      0.05942733
    -13.15014491      0.05928403      0.05943190
    -13.14614451      0.05926656      0.05942190
    -13.14214411      0.05926078      0.05939881
    -13.13814371      0.05926886      0.05936417
    -13.13414331      0.05929302      0.05931962
    -13.13014291      0.05933545      0.05926689
    -13.12614251      0.05939832      0.05920775
    -13.12214211      0.05948380      0.05914406
    -13.11814171      0.05959401      0.05907775
    -13.11414131      0.05973105      0.05901079
    -13.11014091      0.05989698      0.05894520
    -13.10614051      0.06009381      0.05888305
    -13.10214011      0.06032349      0.05882643
    -13.09813971      0.06058790      0.05877748
    -13.09413931      0.06088889      0.05873834
    -13.09013891      0.06122821      0.05871118
    -13.08613851      0.06160753      0.05869817
    -13.08213811      0.06202845      0.05870147
    -13.07813771      0.06249248      0.05872324
    -13.07413731      0.06300103      0.05876564
    -13.07013691      0.06355543      0.05883077
    -13.06613651      0.06415689      0.05892073
    -13.06213611      0.06480654      0.05903758
    -13.05813571      0.06550539      0.05918333
    -13.05413531      0.06625435      0.05935993
    -13.05013491      0.06705422      0.05956930
    -13.04613451      0.06790568      0.05981327
    -13.04213411      0.06880932      0.06009361
    -13.03813371      0.06976560      0.06041202
    -13.03413331      0.07077488      0.06077011
    -13.03013291      0.07183740      0.06116941
    -13.02613251      0.07295330      0.06161137
    -13.02213211      0.07412261      0.06209732
    -13.01813171      0.07534525      0.06262851
    -13.01413131      0.07662104      0.06320608
    -13.01013091      0.07794972      0.06383108
    -13.00613051      0.07933090      0.06450442
    -13.00213011      0.08076412      0.06522693
    -12.99812971      0.08224883      0.06599932
    -12.99412931      0.08378441      0.06682217
    -12.99012891      0.08537012      0.06769597
    -12.98612851      0.08700521      0.06862109
    -12.98212811      0.08868881      0.06959777
    -12.97812771      0.09042002      0.07062616
    -12.97412731      0.09219788      0.07170628
    -12.97012691      0.09402139      0.07283805
    -12.96612651      0.09588949      0.07402129
    -12.96212611      0.09780111      0.07525569
    -12.95812571      0.09975514      0.07654086
    -12.95412531      0.10175045      0.07787632
    -12.95012491      0.10378590      0.07926147
    -12.94612451      0.10586036      0.08069565
    -12.94212411      0.10797266      0.08217810
    -12.93812371      0.11012169      0.08370798
    -12.93412331      0.11230631      0.08528440
    -12.93012291      0.11452542      0.08690639
    -12.92612251      0.11677795      0.08857291
    -12.92212211      0.11906284      0.09028288
    -12.91812171      0.12137909      0.09203519
    -12.91412131      0.12372572      0.09382868
    -12.91012091      0.12610181      0.09566214
    -12.90612051      0.12850648      0.09753437
    -12.90212011      0.13093891      0.09944413
    -12.89811971      0.13339832      0.10139019
    -12.89411931      0.13588400      0.10337131
    -12.89011891      0.13839528      0.10538626
    -12.88611851      0.14093156      0.10743383
    -12.88211810      0.14349231      0.10951281
    -12.87811770      0.14607703      0.11162205
    -12.87411730      0.14868529      0.11376041
    -12.87011690      0.15131670      0.11592680
    -12.86611650      0.15397095      0.11812017
    -12.86211610      0.15664774      0.12033955
    -12.85811570      0.15934684      0.12258399
    -12.85411530      0.16206804      0.12485263
    -12.85011490      0.16481117      0.12714466
    -12.84611450      0.16757608      0.12945934
