# total density of states output by FHI-aims, for a spin polarized system
# The energy reference for this output is the vacuum level
#    Energy (eV)      DOS(spin up)   DOS(spin down)
    -20.00000000      0.10554255      0.15409222
    -19.99599960      0.10338956      0.15104978
    -19.99199920      0.10130758      0.14802038
    -19.98799880      0.09929742      0.14500909
    -19.98399840      0.09735969      0.14202081
    -19.97999800      0.09549475      0.13906026
    -19.97599760      0.09370271      0.13613200
    -19.97199720      0.09198350      0.13324037
    -19.96799680      0.09033681      0.13038953
    -19.96399640      0.08876212      0.12758338
    -19.95999600      0.08725872      0.12482565
    -19.95599560      0.08582573      0.12211979
    -19.95199520      0.08446207      0.11946906
    -19.94799480      0.08316648      0.11687644
    -19.94399440      0.08193759      0.11434468
    -19.93999400      0.08077383      0.11187629
    -19.93599360      0.07967353      0.10947351
    -19.93199320      0.07863489      0.10713834
    -19.92799280      0.07765601      0.10487253
    -19.92399240      0.07673486      0.10267757
    -19.91999200      0.07586936      0.10055471
    -19.91599160      0.07505735      0.09850494
    -19.91199120      0.07429659      0.09652902
    -19.90799080      0.07358481      0.09462748
    -19.90399040      0.07291972      0.09280058
    -19.89999000      0.07229897      0.09104840
    -19.89598960      0.07172023      0.08937076
    -19.89198920      0.07118118      0.08776730
    -19.88798880      0.07067948      0.08623742
    -19.88398840      0.07021286      0.08478037
    -19.87998800      0.06977905      0.08339516
    -19.87598760      0.06937586      0.08208067
    -19.87198720      0.06900115      0.08083559
    -19.86798680      0.06865285      0.07965845
    -19.86398640      0.06832899      0.07854765
    -19.85998600      0.06802766      0.07750146
    -19.85598560      0.06774708      0.07651801
    -19.85198520      0.06748558      0.07559534
    -19.84798480      0.06724159      0.07473138
    -19.84398440      0.06701369      0.07392398
    -19.83998400      0.06680058      0.07317093
    -19.83598360      0.06660110      0.07246995
    -19.83198320      0.06641425      0.07181870
    -19.82798280      0.06623918      0.07121484
    -19.82398240      0.06607520      0.07065598
    -19.81998200      0.06592177      0.07013973
    -19.81598160      0.06577854      0.06966372
    -19.81198120      0.06564531      0.06922556
    -19.80798080      0.06552205      0.06882292
    -19.80398040      0.06540894      0.06845350
    -19.79998000      0.06530629      0.06811504
    -19.79597960      0.06521461      0.06780536
    -19.79197920      0.06513459      0.06752234
    -19.78797880      0.06506710      0.06726395
    -19.78397840      0.06501315      0.06702824
    -19.77997800      0.06497396      0.06681337
    -19.77597760      0.06495092      0.06661762
    -19.77197720      0.06494555      0.06643937
    -19.76797680      0.06495957      0.06627715
    -19.76397640      0.06499484      0.06612962
    -19.75997600      0.06505337      0.06599556
    -19.75597560      0.06513735      0.06587392
    -19.75197520      0.06524906      0.06576381
    -19.74797480      0.06539095      0.06566447
    -19.74397440      0.06556559      0.06557534
    -19.73997400      0.06577565      0.06549601
    -19.73597360      0.06602394      0.06542623
    -19.73197320      0.06631336      0.06536594
    -19.72797280      0.06664688      0.06531526
    -19.72397240      0.06702758      0.06527448
    -19.71997200      0.06745860      0.06524406
    -19.71597160      0.06794313      0.06522466
    -19.71197120      0.06848442      0.06521709
    -19.70797080      0.06908576      0.06522236
    -19.70397040      0.06975046      0.06524164
    -19.69997000      0.07048183      0.06527629
    -19.69596960      0.07128319      0.06532783
    -19.69196920      0.07215785      0.06539794
    -19.68796880      0.07310910      0.06548846
    -19.68396840      0.07414015      0.06560140
    -19.67996800      0.07525421      0.06573890
    -19.67596760      0.07645437      0.06590327
    -19.67196720      0.07774368      0.06609694
    -19.66796680      0.07912507      0.06632247
    -19.66396640      0.08060137      0.06658254
    -19.65996600      0.08217526      0.06687996
    -19.65596560      0.08384932      0.06721763
    -19.65196520      0.08562595      0.06759854
    -19.64796480      0.08750740      0.06802577
    -19.64396440      0.08949571      0.06850249
    -19.63996400      0.09159276      0.06903189
    -19.63596360      0.09380021      0.06961726
    -19.63196320      0.09611950      0.07026190
    -19.62796280      0.09855183      0.07096915
    -19.62396240      0.10109817      0.07174234
    -19.61996200      0.10375921      0.07258483
    -19.61596160      0.10653541      0.07349996
    -19.61196120      0.10942691      0.07449103
    -19.60796080      0.11243360      0.07556130
    -19.60396040      0.11555504      0.07671401
    -19.59996000      0.11879050      0.07795229
    -19.59595960      0.12213896      0.07927921
    -19.59195920      0.12559903      0.08069773
    -19.58795880      0.12916903      0.08221071
    -19.58395840      0.13284694      0.08382088
    -19.57995800      0.13663041      0.08553083
    -19.57595760      0.14051674      0.08734299
    -19.57195720      0.14450289      0.08925962
    -19.56795680      0.14858549      0.09128281
    -19.56395640      0.15276082      0.09341444
    -19.55995600      0.15702483      0.09565619
    -19.55595560      0.16137311      0.09800949
    -19.55195520      0.16580095      0.10047558
    -19.54795480      0.17030327      0.10305540
    -19.54395440      0.17487469      0.10574967
    -19.53995400      0.17950952      0.10855882
    -19.53595360      0.18420176      0.11148298
    -19.53195320      0.18894509      0.11452203
    -19.52795280      0.19373293      0.11767550
    -19.52395240      0.19855841      0.12094265
    -19.51995200      0.20341440      0.12432239
    -19.51595160      0.20829355      0.12781331
    -19.51195120      0.21318823      0.13141370
    -19.50795080      0.21809063      0.13512147
    -19.50395040      0.22299275      0.13893420
    -19.49994999      0.22788638      0.14284915
    -19.49594959      0.23276319      0.14686321
    -19.49194919      0.23761469      0.15097293
    -19.48794879      0.24243228      0.15517450
    -19.48394839      0.24720728      0.15946380
    -19.47994799      0.25193092      0.16383632
    -19.47594759      0.25659440      0.16828726
    -19.47194719      0.26118890      0.17281145
    -19.46794679      0.26570559      0.17740342
    -19.46394639      0.27013570      0.18205735
    -19.45994599      0.27447048      0.18676713
    -19.45594559      0.27870129      0.19152636
    -19.45194519      0.28281957      0.19632832
    -19.44794479      0.28681691      0.20116605
    -19.44394439      0.29068505      0.20603230
    -19.43994399      0.29441593      0.21091959
    -19.43594359      0.29800168      0.21582021
    -19.43194319      0.30143467      0.22072622
    -19.42794279      0.30470753      0.22562950
    -19.42394239      0.30781315      0.23052176
    -19.41994199      0.31074477      0.23539454
    -19.41594159      0.31349590      0.24023927
    -19.41194119      0.31606044      0.24504725
    -19.40794079      0.31843263      0.24980970
    -19.40394039      0.32060711      0.25451777
    -19.39993999      0.32257891      0.25916260
    -19.39593959      0.32434350      0.26373527
    -19.39193919      0.32589674      0.26822691
    -19.38793879      0.32723500      0.27262868
    -19.38393839      0.32835504      0.27693179
    -19.37993799      0.32925415      0.28112755
    -19.37593759      0.32993005      0.28520739
    -19.37193719      0.33038099      0.28916288
    -19.36793679      0.33060566      0.29298575
    -19.36393639      0.33060330      0.29666794
    -19.35993599      0.33037359      0.30020159
    -19.35593559      0.32991676      0.30357910
    -19.35193519      0.32923349      0.30679313
    -19.34793479      0.32832499      0.30983664
    -19.34393439      0.32719294      0.31270291
    -19.33993399      0.32583949      0.31538554
    -19.33593359      0.32426729      0.31787850
    -19.33193319      0.32247943      0.32017614
    -19.32793279      0.32047947      0.32227319
    -19.32393239      0.31827140      0.32416481
    -19.31993199      0.31585964      0.32584659
    -19.31593159      0.31324903      0.32731456
    -19.31193119      0.31044478      0.32856521
    -19.30793079      0.30745250      0.32959548
    -19.30393039      0.30427815      0.33040282
    -19.29992999      0.30092802      0.33098515
    -19.29592959      0.29740871      0.33134089
    -19.29192919      0.29372715      0.33146895
    -19.28792879      0.28989049      0.33136875
    -19.28392839      0.28590618      0.33104021
    -19.27992799      0.28178186      0.33048375
    -19.27592759      0.27752538      0.32970031
    -19.27192719      0.27314478      0.32869131
    -19.26792679      0.26864823      0.32745866
    -19.26392639      0.26404404      0.32600476
    -19.25992599      0.25934062      0.32433249
    -19.25592559      0.25454646      0.32244519
    -19.25192519      0.24967010      0.32034667
    -19.24792479      0.24472012      0.31804115
    -19.24392439      0.23970508      0.31553330
    -19.23992399      0.23463354      0.31282820
    -19.23592359      0.22951403      0.30993131
    -19.23192319      0.22435499      0.30684847
    -19.22792279      0.21916481      0.30358587
    -19.22392239      0.21395175      0.30015003
    -19.21992199      0.20872394      0.29654780
    -19.21592159      0.20348940      0.29278630
    -19.21192119      0.19825596      0.28887292
    -19.20792079      0.19303128      0.28481530
    -19.20392039      0.18782283      0.28062128
    -19.19991999      0.18263788      0.27629891
    -19.19591959      0.17748347      0.27185641
    -19.19191919      0.17236640      0.26730214
    -19.18791879      0.16729324      0.26264456
    -19.18391839      0.16227029      0.25789225
    -19.17991799      0.15730360      0.25305384
    -19.17591759      0.15239895      0.24813802
    -19.17191719      0.14756182      0.24315348
    -19.16791679      0.14279742      0.23810891
    -19.16391639      0.13811069      0.23301298
    -19.15991599      0.13350626      0.22787432
    -19.15591559      0.12898846      0.22270145
    -19.15191519      0.12456134      0.21750282
    -19.14791479      0.12022865      0.21228677
    -19.14391439      0.11599385      0.20706150
    -19.13991399      0.11186012      0.20183504
    -19.13591359      0.10783031      0.19661527
    -19.13191319      0.10390703      0.19140988
    -19.12791279      0.10009258      0.18622634
    -19.12391239      0.09638899      0.18107193
    -19.11991199      0.09279804      0.17595365
    -19.11591159      0.08932120      0.17087832
    -19.11191119      0.08595972      0.16585246
    -19.10791079      0.08271458      0.16088233
    -19.10391039      0.07958653      0.15597394
    -19.09990999      0.07657606      0.15113300
    -19.09590959      0.07368345      0.14636493
    -19.09190919      0.07090877      0.14167487
    -19.08790879      0.06825184      0.13706767
    -19.08390839      0.06571233      0.13254784
    -19.07990799      0.06328967      0.12811964
    -19.07590759      0.06098313      0.12378700
    -19.07190719      0.05879181      0.11955354
    -19.06790679      0.05671462      0.11542260
    -19.06390639      0.05475034      0.11139721
    -19.05990599      0.05289757      0.10748009
    -19.05590559      0.05115481      0.10367368
    -19.05190519      0.04952039      0.09998014
    -19.04790479      0.04799254      0.09640132
    -19.04390439      0.04656937      0.09293881
    -19.03990399      0.04524889      0.08959392
    -19.03590359      0.04402900      0.08636770
    -19.03190319      0.04290751      0.08326091
    -19.02790279      0.04188216      0.08027411
    -19.02390239      0.04095059      0.07740757
    -19.01990199      0.04011039      0.07466136
    -19.01590159      0.03935908      0.07203528
    -19.01190119      0.03869413      0.06952896
    -19.00790079      0.03811293      0.06714179
    -19.00390039      0.03761285      0.06487296
    -18.99989999      0.03719123      0.06272149
    -18.99589959      0.03684534      0.06068618
    -18.99189919      0.03657244      0.05876570
    -18.98789879      0.03636977      0.05695852
    -18.98389839      0.03623453      0.05526298
    -18.97989799      0.03616392      0.05367726
    -18.97589759      0.03615512      0.05219941
    -18.97189719      0.03620529      0.05082735
    -18.96789679      0.03631160      0.04955888
    -18.96389639      0.03647122      0.04839168
    -18.95989599      0.03668131      0.04732334
    -18.95589559      0.03693904      0.04635135
    -18.95189519      0.03724159      0.04547312
    -18.94789479      0.03758614      0.04468596
    -18.94389439      0.03796991      0.04398712
    -18.93989399      0.03839011      0.04337380
    -18.93589359      0.03884398      0.04284312
    -18.93189319      0.03932880      0.04239216
    -18.92789279      0.03984186      0.04201796
    -18.92389239      0.04038049      0.04171749
    -18.91989199      0.04094203      0.04148774
    -18.91589159      0.04152389      0.04132562
    -18.91189119      0.04212349      0.04122807
    -18.90789079      0.04273833      0.04119197
    -18.90389039      0.04336591      0.04121422
    -18.89988999      0.04400381      0.04129170
    -18.89588959      0.04464966      0.04142131
    -18.89188919      0.04530113      0.04159994
    -18.88788879      0.04595596      0.04182448
    -18.88388839      0.04661197      0.04209186
    -18.87988799      0.04726700      0.04239903
    -18.87588759      0.04791901      0.04274293
    -18.87188719      0.04856600      0.04312057
    -18.86788679      0.04920605      0.04352898
    -18.86388639      0.04983735      0.04396521
    -18.85988599      0.05045812      0.04442638
    -18.85588559      0.05106671      0.04490964
    -18.85188519      0.05166154      0.04541219
    -18.84788479      0.05224113      0.04593129
    -18.84388439      0.05280409      0.04646426
    -18.83988399      0.05334914      0.04700849
    -18.83588359      0.05387508      0.04756141
    -18.83188319      0.05438083      0.04812054
    -18.82788279      0.05486541      0.04868349
    -18.82388239      0.05532796      0.04924791
    -18.81988199      0.05576772      0.04981157
    -18.81588159      0.05618405      0.05037229
    -18.81188119      0.05657641      0.05092802
    -18.80788079      0.05694440      0.05147677
    -18.80388039      0.05728771      0.05201665
    -18.79987999      0.05760617      0.05254590
    -18.79587959      0.05789972      0.05306281
    -18.79187919      0.05816843      0.05356583
    -18.78787879      0.05841246      0.05405349
    -18.78387839      0.05863213      0.05452443
    -18.77987799      0.05882784      0.05497740
    -18.77587759      0.05900013      0.05541129
    -18.77187719      0.05914965      0.05582509
    -18.76787679      0.05927716      0.05621792
    -18.76387639      0.05938353      0.05658900
    -18.75987599      0.05946977      0.05693770
    -18.75587559      0.05953695      0.05726349
    -18.75187519      0.05958627      0.05756599
    -18.74787479      0.05961904      0.05784493
    -18.74387439      0.05963664      0.05810017
    -18.73987399      0.05964056      0.05833169
    -18.73587359      0.05963238      0.05853961
    -18.73187319      0.05961375      0.05872415
    -18.72787279      0.05958642      0.05888568
    -18.72387239      0.05955218      0.05902468
    -18.71987199      0.05951293      0.05914175
    -18.71587159      0.05947059      0.05923760
    -18.71187119      0.05942716      0.05931309
    -18.70787079      0.05938468      0.05936914
    -18.70387039      0.05934525      0.05940684
    -18.69986999      0.05931098      0.05942733
    -18.69586959      0.05928403      0.05943190
    -18.69186919      0.05926656      0.05942190
    -18.68786879      0.05926078      0.05939881
    -18.68386839      0.05926886      0.05936417
    -18.67986799      0.05929302      0.05931962
    -18.67586759      0.05933545      0.05926689
    -18.67186719      0.05939832      0.05920775
    -18.66786679      0.05948380      0.05914406
    -18.66386639      0.05959401      0.05907775
    -18.65986599      0.05973105      0.05901079
    -18.65586559      0.05989698      0.05894520
    -18.65186519      0.06009381      0.05888305
    -18.64786479      0.06032349      0.05882643
    -18.64386439      0.06058790      0.05877748
    -18.63986399      0.06088889      0.05873834
    -18.63586359      0.06122821      0.05871118
    -18.63186319      0.06160753      0.05869817
    -18.62786279      0.06202845      0.05870147
    -18.62386239      0.06249248      0.05872324
    -18.61986199      0.06300103      0.05876564
    -18.61586159      0.06355543      0.05883077
    -18.61186119      0.06415689      0.05892073
    -18.60786079      0.06480654      0.05903758
    -18.60386039      0.06550539      0.05918333
    -18.59985999      0.06625435      0.05935993
    -18.59585959      0.06705422      0.05956930
    -18.59185919      0.06790568      0.05981327
    -18.58785879      0.06880932      0.06009361
    -18.58385839      0.06976560      0.06041202
    -18.57985799      0.07077488      0.06077011
    -18.57585759      0.07183740      0.06116941
    -18.57185719      0.07295330      0.06161137
    -18.56785679      0.07412261      0.06209732
    -18.56385639      0.07534525      0.06262851
    -18.55985599      0.07662104      0.06320608
    -18.55585559      0.07794972      0.06383108
    -18.55185519      0.07933090      0.06450442
    -18.54785479      0.08076412      0.06522693
    -18.54385439      0.08224883      0.06599932
    -18.53985399      0.08378441      0.06682217
    -18.53585359      0.08537012      0.06769597
    -18.53185319      0.08700521      0.06862109
    -18.52785279      0.08868881      0.06959777
    -18.52385239      0.09042002      0.07062616
    -18.51985199      0.09219788      0.07170628
    -18.51585159      0.09402139      0.07283805
    -18.51185119      0.09588949      0.07402129
    -18.50785079      0.09780111      0.07525569
    -18.50385039      0.09975514      0.07654086
    -18.49984998      0.10175045      0.07787632
    -18.49584958      0.10378590      0.07926147
    -18.49184918      0.10586036      0.08069565
    -18.48784878      0.10797266      0.08217810
    -18.48384838      0.11012169      0.08370798
    -18.47984798      0.11230631      0.08528440
    -18.47584758      0.11452542      0.08690639
    -18.47184718      0.11677795      0.08857291
    -18.46784678      0.11906284      0.09028288
    -18.46384638      0.12137909      0.09203519
    -18.45984598      0.12372572      0.09382868
    -18.45584558      0.12610181      0.09566214
    -18.45184518      0.12850648      0.09753437
    -18.44784478      0.13093891      0.09944413
    -18.44384438      0.13339832      0.10139019
    -18.43984398      0.13588400      0.10337131
    -18.43584358      0.13839528      0.10538626
    -18.43184318      0.14093156      0.10743383
    -18.42784278      0.14349231      0.10951281
    -18.42384238      0.14607703      0.11162205
    -18.41984198      0.14868529      0.11376041
    -18.41584158      0.15131670      0.11592680
    -18.41184118      0.15397095      0.11812017
    -18.40784078      0.15664774      0.12033955
    -18.40384038      0.15934684      0.12258399
    -18.39983998      0.16206804      0.12485263
    -18.39583958      0.16481117      0.12714466
    -18.39183918      0.16757608      0.12945934
    -18.38783878      0.17036265      0.13179600
