# total density of states output by FHI-aims, for a spin polarized system
# The energy reference for this output is the vacuum level
#    Energy (eV)      DOS(spin up)   DOS(spin down)
    -20.00000000      0.00023479      0.01238581
    -19.99599960      0.00027252      0.00985069
    -19.99199920      0.00033345      0.00778453
    -19.98799880      0.00042086      0.00611258
    -19.98399840      0.00053948      0.00476925
    -19.97999800      0.00069558      0.00369761
    -19.97599760      0.00089707      0.00284878
    -19.97199720      0.00115365      0.00218127
    -19.96799680      0.00147694      0.00166018
    -19.96399640      0.00188066      0.00125649
    -19.95999600      0.00238071      0.00094630
    -19.95599560      0.00299533      0.00071014
    -19.95199520      0.00374513      0.00053237
    -19.94799480      0.00465311      0.00040054
    -19.94399440      0.00574456      0.00030497
    -19.93999400      0.00704693      0.00023829
    -19.93599360      0.00858950      0.00019508
    -19.93199320      0.01040299      0.00017160
    -19.92799280      0.01251902      0.00016557
    -19.92399240      0.01496934      0.00017604
    -19.91999200      0.01778507      0.00020324
    -19.91599160      0.02099562      0.00024861
    -19.91199120      0.02462759      0.00031473
    -19.90799080      0.02870351      0.00040543
    -19.90399040      0.03324054      0.00052582
    -19.89999000      0.03824910      0.00068244
    -19.89598960      0.04373149      0.00088340
    -19.89198920      0.04968066      0.00113848
    -19.88798880      0.05607901      0.00145938
    -19.88398840      0.06289749      0.00185981
    -19.87998800      0.07009487      0.00235564
    -19.87598760      0.07761740      0.00296507
    -19.87198720      0.08539883      0.00370864
    -19.86798680      0.09336084      0.00460927
    -19.86398640      0.10141390      0.00569217
    -19.85998600      0.10945868      0.00698471
    -19.85598560      0.11738778      0.00851611
    -19.85198520      0.12508796      0.01031706
    -19.84798480      0.13244273      0.01241912
    -19.84398440      0.13933515      0.01485409
    -19.83998400      0.14565091      0.01765312
    -19.83598360      0.15128145      0.02084572
    -19.83198320      0.15612703      0.02445864
    -19.82798280      0.16009969      0.02851463
    -19.82398240      0.16312587      0.03303111
    -19.81998200      0.16514870      0.03801882
    -19.81598160      0.16612976      0.04348044
    -19.81198120      0.16605030      0.04940937
    -19.80798080      0.16491185      0.05578849
    -19.80398040      0.16273614      0.06258926
    -19.79998000      0.15956444      0.06977101
    -19.79597960      0.15545625      0.07728055
    -19.79197920      0.15048743      0.08505215
    -19.78797880      0.14474788      0.09300802
    -19.78397840      0.13833885      0.10105910
    -19.77997800      0.13136996      0.10910645
    -19.77597760      0.12395610      0.11704298
    -19.77197720      0.11621435      0.12475567
    -19.76797680      0.10826087      0.13212810
    -19.76397640      0.10020820      0.13904328
    -19.75997600      0.09216265      0.14538675
    -19.75597560      0.08422221      0.15104960
    -19.75197520      0.07647478      0.15593165
    -19.74797480      0.06899694      0.15994437
    -19.74397440      0.06185309      0.16301351
    -19.73997400      0.05509509      0.16508142
    -19.73597360      0.04876232      0.16610884
    -19.73197320      0.04288207      0.16607615
    -19.72797280      0.03747030      0.16498396
    -19.72397240      0.03253258      0.16285315
    -19.71997200      0.02806531      0.15972414
    -19.71597160      0.02405698      0.15565565
    -19.71197120      0.02048954      0.15072289
    -19.70797080      0.01733977      0.14501518
    -19.70397040      0.01458057      0.13863335
    -19.69997000      0.01218220      0.13168669
    -19.69596960      0.01011339      0.12428996
    -19.69196920      0.00834234      0.11656016
    -19.68796880      0.00683753      0.10861360
    -19.68396840      0.00556840      0.10056300
    -19.67996800      0.00450591      0.09251502
    -19.67596760      0.00362289      0.08456802
    -19.67196720      0.00289434      0.07681041
    -19.66796680      0.00229756      0.06931926
    -19.66396640      0.00181222      0.06215954
    -19.65996600      0.00142033      0.05538365
    -19.65596560      0.00110615      0.04903151
    -19.65196520      0.00085607      0.04313095
    -19.64796480      0.00065846      0.03769838
    -19.64396440      0.00050347      0.03273982
    -19.63996400      0.00038285      0.02825204
    -19.63596360      0.00028980      0.02422386
    -19.63196320      0.00021873      0.02063749
    -19.62796280      0.00016517      0.01746990
    -19.62396240      0.00012556      0.01469413
    -19.61996200      0.00009718      0.01228053
    -19.61596160      0.00007801      0.01019790
    -19.61196120      0.00006669      0.00841442
    -19.60796080      0.00006242      0.00689855
    -19.60396040      0.00006500      0.00561968
    -19.59996000      0.00007478      0.00454868
    -19.59595960      0.00009273      0.00365831
    -19.59195920      0.00012048      0.00292347
    -19.58795880      0.00016046      0.00232134
    -19.58395840      0.00021603      0.00183151
    -19.57995800      0.00029165      0.00143587
    -19.57595760      0.00039315      0.00111859
    -19.57195720      0.00052798      0.00086598
    -19.56795680      0.00070557      0.00066633
    -19.56395640      0.00093774      0.00050971
    -19.55995600      0.00123914      0.00038783
    -19.55595560      0.00162776      0.00029384
    -19.55195520      0.00212554      0.00022211
    -19.54795480      0.00275898      0.00016815
    -19.54395440      0.00355981      0.00012842
    -19.53995400      0.00456571      0.00010019
    -19.53595360      0.00582101      0.00008151
    -19.53195320      0.00737744      0.00007106
    -19.52795280      0.00929476      0.00006817
    -19.52395240      0.01164141      0.00007277
    -19.51995200      0.01449495      0.00008541
    -19.51595160      0.01794243      0.00010735
    -19.51195120      0.02208051      0.00014059
    -19.50795080      0.02701531      0.00018804
    -19.50395040      0.03286199      0.00025368
    -19.49994999      0.03974396      0.00034278
    -19.49594959      0.04779161      0.00046220
    -19.49194919      0.05714072      0.00062071
    -19.48794879      0.06793025      0.00082939
    -19.48394839      0.08029977      0.00110209
    -19.47994799      0.09438625      0.00145600
    -19.47594759      0.11032049      0.00191223
    -19.47194719      0.12822303      0.00249648
    -19.46794679      0.14819975      0.00323978
    -19.46394639      0.17033710      0.00417929
    -19.45994599      0.19469723      0.00535909
    -19.45594559      0.22131303      0.00683100
    -19.45194519      0.25018332      0.00865541
    -19.44794479      0.28126828      0.01090202
    -19.44394439      0.31448543      0.01365046
    -19.43994399      0.34970623      0.01699083
    -19.43594359      0.38675350      0.02102399
    -19.43194319      0.42540001      0.02586155
    -19.42794279      0.46536812      0.03162558
    -19.42394239      0.50633089      0.03844794
    -19.41994199      0.54791460      0.04646903
    -19.41594159      0.58970275      0.05583618
    -19.41194119      0.63124159      0.06670137
    -19.40794079      0.67204720      0.07921839
    -19.40394039      0.71161382      0.09353935
    -19.39993999      0.74942353      0.10981070
    -19.39593959      0.78495676      0.12816856
    -19.39193919      0.81770371      0.14873363
    -19.38793879      0.84717598      0.17160572
    -19.38393839      0.87291837      0.19685794
    -19.37993799      0.89452030      0.22453095
    -19.37593759      0.91162648      0.25462712
    -19.37193719      0.92394655      0.28710519
    -19.36793679      0.93126316      0.32187540
    -19.36393639      0.93343836      0.35879546
    -19.35993599      0.93041792      0.39766753
    -19.35593559      0.92223340      0.43823659
    -19.35193519      0.90900197      0.48019023
    -19.34793479      0.89092377      0.52316014
    -19.34393439      0.86827706      0.56672541
    -19.33993399      0.84141124      0.61041764
    -19.33593359      0.81073793      0.65372799
    -19.33193319      0.77672055      0.69611589
    -19.32793279      0.73986264      0.73701942
    -19.32393239      0.70069540      0.77586706
    -19.31993199      0.65976490      0.81209043
    -19.31593159      0.61761937      0.84513775
    -19.31193119      0.57479693      0.87448755
    -19.30793079      0.53181431      0.89966214
    -19.30393039      0.48915671      0.92024035
    -19.29992999      0.44726919      0.93586920
    -19.29592959      0.40654973      0.94627390
    -19.29192919      0.36734410      0.95126583
    -19.28792879      0.32994258      0.95074821
    -19.28392839      0.29457848      0.94471928
    -19.27992799      0.26142838      0.93327263
    -19.27592759      0.23061389      0.91659493
    -19.27192719      0.20220480      0.89496091
    -19.26792679      0.17622326      0.86872591
    -19.26392639      0.15264885      0.83831620
    -19.25992599      0.13142423      0.80421748
    -19.25592559      0.11246109      0.76696202
    -19.25192519      0.09564618      0.72711479
    -19.24792479      0.08084728      0.68525927
    -19.24392439      0.06791874      0.64198326
    -19.23992399      0.05670676      0.59786533
    -19.23592359      0.04705388      0.55346220
    -19.23192319      0.03880311      0.50929753
    -19.22792279      0.03180117      0.46585238
    -19.22392239      0.02590124      0.42355753
    -19.21992199      0.02096499      0.38278780
    -19.21592159      0.01686401      0.34385844
    -19.21192119      0.01348078      0.30702353
    -19.20792079      0.01070912      0.27247616
    -19.20392039      0.00845422      0.24035043
    -19.19991999      0.00663240      0.21072475
    -19.19591959      0.00517061      0.18362649
    -19.19191919      0.00400575      0.15903739
    -19.18791879      0.00308386      0.13689967
    -19.18391839      0.00235923      0.11712241
    -19.17991799      0.00179353      0.09958811
    -19.17591759      0.00135491      0.08415895
    -19.17191719      0.00101711      0.07068287
    -19.16791679      0.00075872      0.05899902
    -19.16391639      0.00056240      0.04894272
    -19.15991599      0.00041425      0.04034968
    -19.15591559      0.00030320      0.03305956
    -19.15191519      0.00022052      0.02691878
    -19.14791479      0.00015937      0.02178267
    -19.14391439      0.00011445      0.01751706
    -19.13991399      0.00008167      0.01399917
    -19.13591359      0.00005791      0.01111812
    -19.13191319      0.00004080      0.00877495
    -19.12791279      0.00002857      0.00688240
    -19.12391239      0.00001987      0.00536432
    -19.11991199      0.00001374      0.00415494
    -19.11591159      0.00000944      0.00319808
    -19.11191119      0.00000644      0.00244616
    -19.10791079      0.00000437      0.00185930
    -19.10391039      0.00000294      0.00140436
    -19.09990999      0.00000197      0.00105408
    -19.09590959      0.00000131      0.00078620
    -19.09190919      0.00000087      0.00058271
    -19.08790879      0.00000057      0.00042917
    -19.08390839      0.00000037      0.00031409
    -19.07990799      0.00000024      0.00022843
    -19.07590759      0.00000016      0.00016508
    -19.07190719      0.00000011      0.00011854
    -19.06790679      0.00000008      0.00008459
    -19.06390639      0.00000006      0.00005998
    -19.05990599      0.00000006      0.00004226
    -19.05590559      0.00000007      0.00002959
    -19.05190519      0.00000010      0.00002059
    -19.04790479      0.00000014      0.00001423
    -19.04390439      0.00000020      0.00000978
    -19.03990399      0.00000030      0.00000667
    -19.03590359      0.00000045      0.00000453
    -19.03190319      0.00000068      0.00000305
    -19.02790279      0.00000101      0.00000205
    -19.02390239      0.00000149      0.00000137
    -19.01990199      0.00000218      0.00000091
    -19.01590159      0.00000317      0.00000061
    -19.01190119      0.00000459      0.00000041
    -19.00790079      0.00000660      0.00000029
    -19.00390039      0.00000943      0.00000023
    -18.99989999      0.00001340      0.00000021
    -18.99589959      0.00001890      0.00000022
    -18.99189919      0.00002649      0.00000028
    -18.98789879      0.00003690      0.00000039
    -18.98389839      0.00005108      0.00000056
    -18.97989799      0.00007024      0.00000082
    -18.97589759      0.00009597      0.00000121
    -18.97189719      0.00013030      0.00000178
    -18.96789679      0.00017578      0.00000259
    -18.96389639      0.00023562      0.00000376
    -18.95989599      0.00031381      0.00000543
    -18.95589559      0.00041528      0.00000779
    -18.95189519      0.00054606      0.00001109
    -18.94789479      0.00071344      0.00001571
    -18.94389439      0.00092619      0.00002209
    -18.93989399      0.00119470      0.00003088
    -18.93589359      0.00153121      0.00004289
    -18.93189319      0.00194999      0.00005918
    -18.92789279      0.00246747      0.00008114
    -18.92389239      0.00310234      0.00011055
    -18.91989199      0.00387568      0.00014965
    -18.91589159      0.00481090      0.00020129
    -18.91189119      0.00593368      0.00026902
    -18.90789079      0.00727180      0.00035724
    -18.90389039      0.00885482      0.00047137
    -18.89988999      0.01071365      0.00061799
    -18.89588959      0.01287999      0.00080505
    -18.89188919      0.01538556      0.00104203
    -18.88788879      0.01826127      0.00134018
    -18.88388839      0.02153618      0.00171262
    -18.87988799      0.02523634      0.00217461
    -18.87588759      0.02938354      0.00274360
    -18.87188719      0.03399395      0.00343939
    -18.86788679      0.03907682      0.00428411
    -18.86388639      0.04463307      0.00530225
    -18.85988599      0.05065405      0.00652049
    -18.85588559      0.05712045      0.00796746
    -18.85188519      0.06400133      0.00967341
    -18.84788479      0.07125353      0.01166968
    -18.84388439      0.07882132      0.01398809
    -18.83988399      0.08663651      0.01666011
    -18.83588359      0.09461897      0.01971593
    -18.83188319      0.10267752      0.02318338
    -18.82788279      0.11071145      0.02708670
    -18.82388239      0.11861228      0.03144527
    -18.81988199      0.12626609      0.03627226
    -18.81588159      0.13355611      0.04157323
    -18.81188119      0.14036562      0.04734488
    -18.80788079      0.14658100      0.05357376
    -18.80388039      0.15209488      0.06023532
    -18.79987999      0.15680917      0.06729306
    -18.79587959      0.16063800      0.07469805
    -18.79187919      0.16351028      0.08238881
    -18.78787879      0.16537194      0.09029156
    -18.78387839      0.16618757      0.09832095
    -18.77987799      0.16594157      0.10638121
    -18.77587759      0.16463866      0.11436779
    -18.77187719      0.16230369      0.12216942
    -18.76787679      0.15898090      0.12967051
    -18.76387639      0.15473247      0.13675396
    -18.75987599      0.14963663      0.14330408
    -18.75587559      0.14378525      0.14920974
    -18.75187519      0.13728109      0.15436745
    -18.74787479      0.13023481      0.15868441
    -18.74387439      0.12276183      0.16208124
    -18.73987399      0.11497929      0.16449443
    -18.73587359      0.10700298      0.16587831
    -18.73187319      0.09894459      0.16620649
    -18.72787279      0.09090927      0.16547268
    -18.72387239      0.08299354      0.16369091
    -18.71987199      0.07528359      0.16089510
    -18.71587159      0.06785414      0.15713793
    -18.71187119      0.06076764      0.15248923
    -18.70787079      0.05407397      0.14703384
    -18.70387039      0.04781060      0.14086899
    -18.69986999      0.04200297      0.13410144
    -18.69586959      0.03666535      0.12684444
    -18.69186919      0.03180180      0.11921459
    -18.68786879      0.02740737      0.11132875
    -18.68386839      0.02346946      0.10330116
    -18.67986799      0.01996912      0.09524080
    -18.67586759      0.01688241      0.08724908
    -18.67186719      0.01418177      0.07941794
    -18.66786679      0.01183713      0.07182842
    -18.66386639      0.00981709      0.06454966
    -18.65986599      0.00808983      0.05763836
    -18.65586559      0.00662396      0.05113865
    -18.65186519      0.00538913      0.04508237
    -18.64786479      0.00435657      0.03948974
    -18.64386439      0.00349944      0.03437018
    -18.63986399      0.00279313      0.02972345
    -18.63586359      0.00221533      0.02554093
    -18.63186319      0.00174609      0.02180690
    -18.62786279      0.00136785      0.01849999
    -18.62386239      0.00106527      0.01559440
    -18.61986199      0.00082517      0.01306129
    -18.61586159      0.00063631      0.01086986
    -18.61186119      0.00048930      0.00898839
    -18.60786079      0.00037638      0.00738517
    -18.60386039      0.00029126      0.00602921
    -18.59985999      0.00022899      0.00489083
    -18.59585959      0.00018582      0.00394212
    -18.59185919      0.00015910      0.00315724
    -18.58785879      0.00014725      0.00251259
    -18.58385839      0.00014964      0.00198697
    -18.57985799      0.00016668      0.00156152
    -18.57585759      0.00019980      0.00121969
    -18.57185719      0.00025156      0.00094713
    -18.56785679      0.00032574      0.00073157
    -18.56385639      0.00042754      0.00056258
    -18.55985599      0.00056377      0.00043151
    -18.55585559      0.00074307      0.00033122
    -18.55185519      0.00097626      0.00025596
    -18.54785479      0.00127660      0.00020125
    -18.54385439      0.00166015      0.00016370
    -18.53985399      0.00214618      0.00014096
    -18.53585359      0.00275749      0.00013165
    -18.53185319      0.00352076      0.00013530
    -18.52785279      0.00446692      0.00015238
    -18.52385239      0.00563140      0.00018433
    -18.51985199      0.00705428      0.00023363
    -18.51585159      0.00878037      0.00030394
    -18.51185119      0.01085914      0.00040027
    -18.50785079      0.01334441      0.00052912
    -18.50385039      0.01629385      0.00069881
    -18.49984998      0.01976826      0.00091969
    -18.49584958      0.02383050      0.00120452
    -18.49184918      0.02854421      0.00156876
    -18.48784878      0.03397214      0.00203096
    -18.48384838      0.04017424      0.00261314
    -18.47984798      0.04720549      0.00334113
    -18.47584758      0.05511341      0.00424494
    -18.47184718      0.06393549      0.00535899
    -18.46784678      0.07369648      0.00672236
    -18.46384638      0.08440563      0.00837885
    -18.45984598      0.09605412      0.01037692
    -18.45584558      0.10861270      0.01276950
    -18.45184518      0.12202959      0.01561348
    -18.44784478      0.13622902      0.01896906
    -18.44384438      0.15111031      0.02289876
    -18.43984398      0.16654766      0.02746617
    -18.43584358      0.18239079      0.03273439
    -18.43184318      0.19846652      0.03876417
    -18.42784278      0.21458115      0.04561174
    -18.42384238      0.23052383      0.05332647
    -18.41984198      0.24607079      0.06194823
    -18.41584158      0.26099023      0.07150476
    -18.41184118      0.27504795      0.08200890
    -18.40784078      0.28801329      0.09345595
    -18.40384038      0.29966542      0.10582125
    -18.39983998      0.30979950      0.11905806
    -18.39583958      0.31823269      0.13309589
    -18.39183918      0.32480961      0.14783949
    -18.38783878      0.32940713      0.16316847
